time,MLII,V1
0.0,-0.215,0.095
0.002777777777777778,-0.215,0.095
0.005555555555555556,-0.215,0.095
0.008333333333333333,-0.215,0.095
0.011111111111111112,-0.215,0.095
0.013888888888888888,-0.215,0.095
0.016666666666666666,-0.215,0.095
0.019444444444444445,-0.215,0.095
0.022222222222222223,-0.21,0.095
0.025,-0.2,0.11
0.027777777777777773,-0.19,0.1
0.030555555555555558,-0.195,0.085
0.03333333333333333,-0.2,0.05
0.03611111111111111,-0.2,0.06
0.03888888888888889,-0.175,0.09
0.04166666666666666,-0.16,0.095
0.044444444444444446,-0.16,0.095
0.04722222222222222,-0.155,0.07
0.05,-0.175,0.045
0.05277777777777778,-0.16,0.055
0.05555555555555555,-0.16,0.065
0.058333333333333334,-0.17,0.09
0.06111111111111111,-0.155,0.09
0.06388888888888888,-0.17,0.065
0.06666666666666667,-0.185,0.06
0.06944444444444445,-0.165,0.055
0.07222222222222222,-0.175,0.065
0.075,-0.16,0.085
0.07777777777777778,-0.145,0.085
0.08055555555555556,-0.165,0.035
0.08333333333333333,-0.195,0.01
0.08611111111111111,-0.235,-0.045
0.08888888888888889,-0.255,-0.07
0.09166666666666666,-0.26,-0.075
0.09444444444444444,-0.25,-0.115
0.09722222222222224,-0.26,-0.175
0.1,-0.27,-0.235
0.10277777777777776,-0.24,-0.265
0.10555555555555556,-0.145,-0.25
0.10833333333333334,-0.035,-0.22
0.1111111111111111,0.095,-0.19
0.11388888888888889,0.235,-0.18
0.11666666666666668,0.315,-0.18
0.11944444444444445,0.34,-0.185
0.1222222222222222,0.38,-0.15
0.125,0.41,-0.06
0.12777777777777777,0.48,0.115
0.13055555555555556,0.59,0.375
0.13333333333333333,0.71,0.675
0.1361111111111111,0.795,0.94
0.1388888888888889,0.815,1.08
0.14166666666666666,0.775,1.135
0.14444444444444443,0.71,1.185
0.14722222222222223,0.655,1.225
0.15,0.58,1.28
0.1527777777777778,0.485,1.305
0.15555555555555556,0.37,1.305
0.15833333333333333,0.215,1.29
0.16111111111111112,0.02,1.22
0.1638888888888889,-0.145,1.135
0.16666666666666666,-0.265,1.035
0.16944444444444445,-0.315,0.965
0.17222222222222222,-0.345,0.9
0.175,-0.35,0.895
0.17777777777777778,-0.39,0.895
0.18055555555555558,-0.405,0.895
0.1833333333333333,-0.465,0.905
0.18611111111111112,-0.51,0.91
0.18888888888888888,-0.49,0.965
0.19166666666666668,-0.445,1.01
0.19444444444444448,-0.39,1.04
0.19722222222222222,-0.375,1.07
0.2,-0.345,1.07
0.20277777777777778,-0.295,1.075
0.20555555555555557,-0.23,1.065
0.20833333333333331,-0.18,1.025
0.2111111111111111,-0.16,0.945
0.21388888888888888,-0.16,0.845
0.21666666666666667,-0.2,0.725
0.21944444444444444,-0.24,0.59
0.2222222222222222,-0.26,0.445
0.225,-0.275,0.365
0.22777777777777777,-0.275,0.255
0.2305555555555556,-0.27,0.195
0.2333333333333333,-0.28,0.145
0.2361111111111111,-0.27,0.145
0.2388888888888889,-0.265,0.125
0.24166666666666664,-0.265,0.105
0.24444444444444444,-0.26,0.085
0.24722222222222223,-0.275,0.06
0.25,-0.285,0.045
0.25277777777777777,-0.285,0.06
0.2555555555555556,-0.285,0.07
0.25833333333333336,-0.28,0.07
0.2611111111111111,-0.285,0.035
0.2638888888888889,-0.28,0.01
0.26666666666666666,-0.3,0.01
0.26944444444444443,-0.29,0.025
0.2722222222222222,-0.29,0.05
0.275,-0.29,0.04
0.2777777777777778,-0.28,0.035
0.28055555555555556,-0.285,0.0
0.2833333333333333,-0.3,-0.005
0.2861111111111111,-0.29,0.015
0.28888888888888886,-0.28,0.045
0.2916666666666667,-0.26,0.045
0.29444444444444445,-0.265,0.035
0.2972222222222222,-0.265,0.0
0.3,-0.28,-0.015
0.30277777777777776,-0.28,0.0
0.3055555555555556,-0.27,0.015
0.30833333333333335,-0.26,0.04
0.3111111111111111,-0.265,0.035
0.3138888888888889,-0.27,0.02
0.31666666666666665,-0.28,-0.01
0.3194444444444444,-0.285,0.0
0.32222222222222224,-0.27,0.015
0.325,-0.25,0.045
0.3277777777777778,-0.25,0.055
0.33055555555555555,-0.255,0.03
0.3333333333333333,-0.26,0.0
0.33611111111111114,-0.25,-0.005
0.3388888888888889,-0.24,0.025
0.3416666666666667,-0.235,0.05
0.34444444444444444,-0.225,0.045
0.3472222222222222,-0.225,0.03
0.35,-0.24,0.01
0.3527777777777778,-0.23,0.01
0.35555555555555557,-0.21,0.03
0.35833333333333334,-0.19,0.035
0.3611111111111111,-0.19,0.055
0.3638888888888889,-0.205,0.055
0.3666666666666666,-0.215,0.025
0.36944444444444446,-0.215,0.02
0.37222222222222223,-0.195,0.035
0.375,-0.195,0.075
0.37777777777777777,-0.175,0.08
0.38055555555555554,-0.175,0.075
0.38333333333333336,-0.18,0.045
0.3861111111111112,-0.175,0.045
0.3888888888888889,-0.165,0.07
0.39166666666666666,-0.165,0.1
0.39444444444444443,-0.135,0.115
0.3972222222222222,-0.135,0.09
0.4,-0.14,0.09
0.4027777777777778,-0.135,0.085
0.40555555555555556,-0.13,0.11
0.4083333333333333,-0.11,0.125
0.4111111111111111,-0.09,0.14
0.41388888888888886,-0.085,0.14
0.4166666666666667,-0.1,0.125
0.41944444444444445,-0.095,0.13
0.4222222222222222,-0.08,0.14
0.425,-0.065,0.165
0.42777777777777776,-0.065,0.18
0.4305555555555556,-0.085,0.185
0.43333333333333335,-0.075,0.175
0.4361111111111112,-0.07,0.18
0.4388888888888889,-0.055,0.18
0.4416666666666666,-0.035,0.195
0.4444444444444444,-0.035,0.215
0.44722222222222224,-0.035,0.22
0.45,-0.035,0.215
0.4527777777777778,-0.03,0.215
0.45555555555555555,-0.02,0.22
0.4583333333333333,-0.015,0.23
0.4611111111111112,0.0,0.245
0.4638888888888889,0.005,0.255
0.4666666666666667,-0.005,0.26
0.46944444444444444,0.01,0.26
0.4722222222222222,0.035,0.265
0.475,0.05,0.275
0.4777777777777778,0.05,0.295
0.48055555555555557,0.05,0.29
0.48333333333333334,0.045,0.29
0.4861111111111111,0.04,0.295
0.4888888888888889,0.035,0.295
0.4916666666666666,0.07,0.305
0.49444444444444446,0.07,0.315
0.49722222222222223,0.07,0.32
0.5,0.065,0.315
0.5027777777777778,0.075,0.32
0.5055555555555555,0.07,0.32
0.5083333333333333,0.08,0.34
0.5111111111111111,0.1,0.35
0.5138888888888888,0.095,0.36
0.5166666666666667,0.085,0.345
0.5194444444444445,0.08,0.34
0.5222222222222223,0.095,0.35
0.525,0.105,0.37
0.5277777777777778,0.125,0.375
0.5305555555555556,0.125,0.37
0.5333333333333333,0.125,0.37
0.5361111111111111,0.11,0.38
0.5388888888888889,0.13,0.385
0.5416666666666666,0.15,0.39
0.5444444444444444,0.145,0.405
0.5472222222222223,0.14,0.395
0.55,0.115,0.405
0.5527777777777778,0.11,0.41
0.5555555555555556,0.125,0.4
0.5583333333333333,0.14,0.405
0.5611111111111111,0.145,0.42
0.5638888888888889,0.135,0.415
0.5666666666666667,0.13,0.425
0.5694444444444444,0.125,0.43
0.5722222222222222,0.125,0.435
0.575,0.14,0.43
0.5777777777777777,0.14,0.44
0.5805555555555556,0.135,0.435
0.5833333333333334,0.13,0.45
0.5861111111111111,0.14,0.46
0.5888888888888889,0.145,0.46
0.5916666666666667,0.15,0.465
0.5944444444444444,0.14,0.46
0.5972222222222222,0.125,0.47
0.6,0.115,0.48
0.6027777777777777,0.115,0.49
0.6055555555555555,0.13,0.495
0.6083333333333333,0.12,0.49
0.6111111111111112,0.115,0.49
0.6138888888888889,0.115,0.5
0.6166666666666667,0.1,0.51
0.6194444444444445,0.09,0.525
0.6222222222222222,0.1,0.53
0.625,0.11,0.535
0.6277777777777778,0.105,0.54
0.6305555555555555,0.09,0.55
0.6333333333333333,0.075,0.57
0.6361111111111111,0.08,0.565
0.6388888888888888,0.085,0.585
0.6416666666666667,0.11,0.58
0.6444444444444445,0.105,0.58
0.6472222222222223,0.1,0.58
0.65,0.085,0.6
0.6527777777777778,0.09,0.61
0.6555555555555556,0.105,0.63
0.6583333333333333,0.095,0.635
0.6611111111111111,0.095,0.615
0.6638888888888889,0.08,0.625
0.6666666666666666,0.07,0.62
0.6694444444444444,0.06,0.65
0.6722222222222223,0.07,0.66
0.675,0.09,0.645
0.6777777777777778,0.09,0.635
0.6805555555555556,0.09,0.64
0.6833333333333333,0.085,0.63
0.6861111111111111,0.075,0.655
0.6888888888888889,0.085,0.66
0.6916666666666667,0.105,0.655
0.6944444444444444,0.115,0.645
0.6972222222222222,0.105,0.63
0.7,0.11,0.64
0.7027777777777777,0.11,0.645
0.7055555555555556,0.12,0.65
0.7083333333333334,0.13,0.64
0.7111111111111111,0.145,0.605
0.7138888888888889,0.135,0.61
0.7166666666666667,0.125,0.61
0.7194444444444444,0.125,0.63
0.7222222222222222,0.135,0.64
0.725,0.135,0.635
0.7277777777777777,0.15,0.625
0.7305555555555555,0.145,0.61
0.7333333333333333,0.145,0.61
0.7361111111111112,0.145,0.635
0.7388888888888889,0.16,0.65
0.7416666666666667,0.165,0.64
0.7444444444444445,0.175,0.63
0.7472222222222222,0.17,0.62
0.75,0.165,0.61
0.7527777777777778,0.175,0.625
0.7555555555555555,0.165,0.64
0.7583333333333333,0.195,0.63
0.7611111111111111,0.195,0.625
0.7638888888888888,0.185,0.59
0.7666666666666667,0.185,0.59
0.7694444444444445,0.19,0.605
0.7722222222222223,0.2,0.62
0.775,0.225,0.625
0.7777777777777778,0.22,0.605
0.7805555555555556,0.205,0.555
0.7833333333333333,0.185,0.525
0.7861111111111111,0.18,0.515
0.7888888888888889,0.185,0.525
0.7916666666666666,0.19,0.51
0.7944444444444444,0.19,0.475
0.7972222222222223,0.19,0.41
0.8,0.2,0.365
0.8027777777777778,0.21,0.375
0.8055555555555556,0.275,0.395
0.8083333333333333,0.335,0.435
0.8111111111111111,0.39,0.45
0.8138888888888889,0.405,0.465
0.8166666666666667,0.405,0.475
0.8194444444444444,0.395,0.49
0.8222222222222222,0.42,0.53
0.825,0.42,0.565
0.8277777777777777,0.405,0.565
0.8305555555555556,0.355,0.56
0.8333333333333334,0.285,0.515
0.8361111111111111,0.2,0.52
0.8388888888888889,0.11,0.5
0.8416666666666667,0.01,0.52
0.8444444444444444,-0.07,0.535
0.8472222222222222,-0.2,0.555
0.85,-0.33,0.555
0.8527777777777777,-0.465,0.54
0.8555555555555555,-0.58,0.535
0.8583333333333333,-0.7,0.505
0.8611111111111112,-0.79,0.455
0.8638888888888889,-0.87,0.395
0.8666666666666667,-0.93,0.355
0.8694444444444445,-0.975,0.31
0.8722222222222222,-0.985,0.305
0.875,-0.965,0.305
0.8777777777777778,-0.93,0.32
0.8805555555555555,-0.87,0.35
0.8833333333333333,-0.8,0.385
0.8861111111111111,-0.705,0.42
0.8888888888888888,-0.605,0.455
0.8916666666666667,-0.495,0.475
0.8944444444444445,-0.445,0.455
0.8972222222222223,-0.445,0.4
0.9,-0.47,0.305
0.9027777777777778,-0.525,0.2
0.9055555555555557,-0.57,0.085
0.9083333333333333,-0.63,-0.025
0.9111111111111112,-0.71,-0.135
0.9138888888888888,-0.8,-0.26
0.9166666666666666,-0.885,-0.385
0.9194444444444444,-0.94,-0.505
0.9222222222222224,-0.955,-0.615
0.925,-0.975,-0.685
0.9277777777777778,-0.975,-0.74
0.9305555555555557,-0.975,-0.77
0.9333333333333333,-0.985,-0.81
0.9361111111111112,-1.0,-0.835
0.9388888888888888,-0.99,-0.85
0.9416666666666667,-0.985,-0.855
0.9444444444444443,-0.99,-0.87
0.9472222222222222,-1.005,-0.87
0.95,-0.995,-0.88
0.9527777777777776,-1.005,-0.875
0.9555555555555556,-1.005,-0.89
0.9583333333333334,-0.995,-0.9
0.9611111111111112,-0.99,-0.905
0.9638888888888888,-1.01,-0.915
0.9666666666666667,-1.02,-0.92
0.9694444444444443,-1.025,-0.91
0.9722222222222222,-1.025,-0.92
0.975,-1.02,-0.93
0.9777777777777776,-1.005,-0.95
0.9805555555555556,-1.025,-0.945
0.9833333333333332,-1.03,-0.95
0.9861111111111112,-1.03,-0.935
0.9888888888888888,-1.015,-0.935
0.9916666666666668,-1.015,-0.95
0.9944444444444444,-1.005,-0.97
0.9972222222222225,-1.015,-0.975
1.0,-1.02,-0.965
1.0027777777777775,-1.03,-0.96
1.0055555555555558,-1.015,-0.945
1.008333333333333,-0.98,-0.96
1.0111111111111113,-0.99,-0.98
1.0138888888888888,-0.99,-0.985
1.0166666666666666,-1.0,-0.975
1.0194444444444444,-1.005,-0.955
1.0222222222222221,-0.995,-0.94
1.025,-0.985,-0.95
1.0277777777777777,-1.01,-0.96
1.0305555555555554,-1.01,-0.975
1.0333333333333337,-0.995,-0.97
1.0361111111111112,-1.0,-0.945
1.038888888888889,-0.985,-0.925
1.0416666666666667,-0.965,-0.935
1.0444444444444445,-0.96,-0.94
1.0472222222222223,-0.965,-0.935
1.05,-0.975,-0.93
1.0527777777777778,-0.96,-0.905
1.0555555555555556,-0.94,-0.895
1.0583333333333333,-0.92,-0.885
1.0611111111111111,-0.91,-0.9
1.0638888888888889,-0.91,-0.9
1.0666666666666667,-0.94,-0.88
1.0694444444444444,-0.945,-0.86
1.0722222222222222,-0.915,-0.83
1.075,-0.895,-0.83
1.0777777777777777,-0.895,-0.835
1.0805555555555555,-0.905,-0.84
1.0833333333333333,-0.885,-0.825
1.086111111111111,-0.875,-0.795
1.0888888888888888,-0.845,-0.77
1.0916666666666663,-0.82,-0.76
1.0944444444444446,-0.81,-0.785
1.0972222222222223,-0.81,-0.775
1.1,-0.82,-0.77
1.1027777777777779,-0.81,-0.75
1.1055555555555556,-0.8,-0.725
1.1083333333333336,-0.8,-0.715
1.1111111111111112,-0.79,-0.73
1.113888888888889,-0.8,-0.73
1.1166666666666667,-0.79,-0.725
1.1194444444444445,-0.775,-0.69
1.1222222222222222,-0.75,-0.65
1.125,-0.74,-0.64
1.1277777777777778,-0.725,-0.64
1.1305555555555555,-0.72,-0.66
1.1333333333333333,-0.725,-0.65
1.136111111111111,-0.72,-0.625
1.1388888888888888,-0.7,-0.58
1.1416666666666664,-0.7,-0.59
1.1444444444444444,-0.7,-0.6
1.1472222222222221,-0.7,-0.6
1.15,-0.715,-0.6
1.1527777777777777,-0.71,-0.565
1.1555555555555554,-0.675,-0.535
1.1583333333333337,-0.665,-0.515
1.1611111111111112,-0.65,-0.51
1.163888888888889,-0.65,-0.51
1.1666666666666667,-0.655,-0.51
1.1694444444444445,-0.645,-0.48
1.1722222222222223,-0.63,-0.44
1.175,-0.61,-0.425
1.1777777777777778,-0.6,-0.44
1.1805555555555556,-0.605,-0.435
1.1833333333333333,-0.605,-0.435
1.1861111111111111,-0.6,-0.41
1.1888888888888889,-0.57,-0.365
1.1916666666666667,-0.55,-0.365
1.1944444444444444,-0.54,-0.36
1.1972222222222222,-0.56,-0.375
1.2,-0.55,-0.375
1.2027777777777777,-0.54,-0.35
1.2055555555555555,-0.525,-0.315
1.2083333333333333,-0.5,-0.295
1.211111111111111,-0.5,-0.3
1.2138888888888888,-0.505,-0.31
1.2166666666666663,-0.5,-0.305
1.2194444444444446,-0.495,-0.29
1.2222222222222223,-0.47,-0.265
1.225,-0.455,-0.255
1.2277777777777779,-0.45,-0.26
1.2305555555555556,-0.45,-0.26
1.2333333333333336,-0.455,-0.275
1.2361111111111112,-0.455,-0.255
1.238888888888889,-0.435,-0.22
1.2416666666666667,-0.415,-0.185
1.2444444444444445,-0.405,-0.19
1.2472222222222222,-0.4,-0.205
1.25,-0.415,-0.22
1.2527777777777778,-0.4,-0.205
1.2555555555555555,-0.41,-0.175
1.2583333333333333,-0.395,-0.16
1.261111111111111,-0.37,-0.15
1.2638888888888888,-0.38,-0.165
1.2666666666666664,-0.385,-0.165
1.2694444444444444,-0.385,-0.145
1.2722222222222221,-0.375,-0.115
1.275,-0.365,-0.095
1.2777777777777777,-0.345,-0.085
1.2805555555555554,-0.335,-0.1
1.2833333333333337,-0.345,-0.1
1.2861111111111112,-0.34,-0.09
1.288888888888889,-0.32,-0.05
1.2916666666666667,-0.305,-0.025
1.2944444444444445,-0.305,-0.025
1.2972222222222223,-0.3,-0.025
1.3,-0.305,-0.035
1.3027777777777778,-0.295,-0.025
1.3055555555555556,-0.28,0.0
1.3083333333333333,-0.265,0.04
1.3111111111111111,-0.255,0.04
1.3138888888888889,-0.26,0.035
1.3166666666666667,-0.28,0.015
1.3194444444444444,-0.275,0.025
1.3222222222222222,-0.27,0.045
1.325,-0.245,0.07
1.3277777777777777,-0.25,0.085
1.3305555555555555,-0.275,0.065
1.3333333333333333,-0.275,0.055
1.336111111111111,-0.26,0.06
1.3388888888888888,-0.25,0.075
1.3416666666666663,-0.23,0.09
1.3444444444444446,-0.23,0.105
1.3472222222222223,-0.235,0.1
1.35,-0.245,0.085
1.3527777777777779,-0.24,0.095
1.3555555555555556,-0.22,0.09
1.3583333333333336,-0.205,0.11
1.3611111111111112,-0.2,0.105
1.363888888888889,-0.205,0.11
1.3666666666666667,-0.22,0.105
1.3694444444444445,-0.23,0.095
1.3722222222222222,-0.215,0.1
1.375,-0.19,0.105
1.3777777777777778,-0.2,0.125
1.3805555555555555,-0.195,0.125
1.3833333333333333,-0.215,0.125
1.386111111111111,-0.22,0.115
1.3888888888888888,-0.22,0.11
1.3916666666666664,-0.2,0.125
1.3944444444444444,-0.2,0.125
1.3972222222222221,-0.205,0.13
1.4,-0.215,0.115
1.4027777777777777,-0.21,0.125
1.4055555555555554,-0.21,0.12
1.4083333333333337,-0.185,0.13
1.4111111111111112,-0.185,0.135
1.413888888888889,-0.19,0.135
1.4166666666666667,-0.19,0.13
1.4194444444444445,-0.195,0.125
1.4222222222222223,-0.175,0.12
1.425,-0.16,0.13
1.4277777777777778,-0.17,0.135
1.4305555555555556,-0.175,0.135
1.4333333333333333,-0.175,0.13
1.4361111111111111,-0.2,0.12
1.4388888888888889,-0.18,0.125
1.4416666666666667,-0.175,0.13
1.4444444444444444,-0.175,0.14
1.4472222222222222,-0.175,0.145
1.45,-0.19,0.13
1.4527777777777777,-0.2,0.13
1.4555555555555555,-0.175,0.13
1.4583333333333333,-0.175,0.125
1.461111111111111,-0.17,0.135
1.4638888888888888,-0.18,0.135
1.4666666666666663,-0.185,0.14
1.4694444444444446,-0.19,0.135
1.4722222222222223,-0.185,0.13
1.475,-0.165,0.125
1.4777777777777779,-0.145,0.13
1.4805555555555556,-0.165,0.125
1.4833333333333336,-0.165,0.13
1.4861111111111112,-0.175,0.145
1.488888888888889,-0.17,0.145
1.4916666666666667,-0.16,0.125
1.4944444444444445,-0.165,0.125
1.4972222222222222,-0.17,0.135
1.5,-0.195,0.14
1.5027777777777778,-0.19,0.14
1.5055555555555555,-0.195,0.135
1.5083333333333333,-0.165,0.13
1.511111111111111,-0.175,0.125
1.5138888888888888,-0.18,0.14
1.5166666666666664,-0.19,0.13
1.5194444444444444,-0.175,0.135
1.5222222222222221,-0.17,0.125
1.525,-0.15,0.12
1.5277777777777777,-0.155,0.14
1.5305555555555554,-0.165,0.13
1.5333333333333337,-0.16,0.135
1.5361111111111112,-0.16,0.13
1.538888888888889,-0.15,0.11
1.5416666666666667,-0.14,0.115
1.5444444444444445,-0.135,0.12
1.5472222222222223,-0.145,0.135
1.55,-0.16,0.125
1.5527777777777778,-0.18,0.12
1.5555555555555556,-0.16,0.12
1.5583333333333333,-0.16,0.125
1.5611111111111111,-0.16,0.125
1.5638888888888889,-0.155,0.14
1.5666666666666667,-0.16,0.14
1.5694444444444444,-0.17,0.125
1.5722222222222222,-0.16,0.125
1.575,-0.14,0.125
1.5777777777777777,-0.14,0.13
1.5805555555555555,-0.15,0.13
1.5833333333333333,-0.155,0.125
1.586111111111111,-0.155,0.12
1.5888888888888888,-0.14,0.13
1.5916666666666663,-0.13,0.13
1.5944444444444446,-0.125,0.13
1.5972222222222223,-0.145,0.135
1.6,-0.145,0.125
1.6027777777777779,-0.15,0.125
1.6055555555555556,-0.145,0.125
1.6083333333333336,-0.13,0.135
1.6111111111111112,-0.135,0.13
1.613888888888889,-0.145,0.14
1.6166666666666667,-0.16,0.125
1.6194444444444445,-0.165,0.12
1.6222222222222222,-0.15,0.13
1.625,-0.14,0.13
1.6277777777777778,-0.14,0.135
1.6305555555555555,-0.135,0.13
1.6333333333333333,-0.14,0.12
1.636111111111111,-0.165,0.1
1.6388888888888888,-0.145,0.115
1.6416666666666664,-0.125,0.13
1.6444444444444444,-0.12,0.135
1.6472222222222221,-0.135,0.125
1.65,-0.14,0.11
1.6527777777777777,-0.14,0.11
1.6555555555555554,-0.135,0.1
1.6583333333333337,-0.13,0.12
1.6611111111111112,-0.135,0.13
1.663888888888889,-0.145,0.12
1.6666666666666667,-0.15,0.115
1.6694444444444445,-0.16,0.12
1.6722222222222223,-0.15,0.11
1.675,-0.14,0.12
1.6777777777777778,-0.135,0.125
1.6805555555555556,-0.15,0.125
1.6833333333333333,-0.15,0.115
1.6861111111111111,-0.155,0.09
1.6888888888888889,-0.145,0.11
1.6916666666666667,-0.135,0.115
1.6944444444444444,-0.125,0.125
1.6972222222222222,-0.135,0.125
1.7,-0.13,0.1
1.7027777777777777,-0.135,0.085
1.7055555555555555,-0.125,0.11
1.7083333333333333,-0.105,0.125
1.711111111111111,-0.115,0.125
1.7138888888888888,-0.13,0.1
1.7166666666666663,-0.14,0.085
1.7194444444444446,-0.15,0.095
1.7222222222222223,-0.13,0.11
1.725,-0.125,0.13
1.7277777777777779,-0.13,0.115
1.7305555555555556,-0.13,0.105
1.7333333333333336,-0.14,0.085
1.7361111111111112,-0.135,0.105
1.738888888888889,-0.125,0.12
1.7416666666666667,-0.12,0.135
1.7444444444444445,-0.11,0.135
1.7472222222222222,-0.125,0.1
1.75,-0.155,0.09
1.7527777777777778,-0.15,0.095
1.7555555555555555,-0.13,0.12
1.7583333333333333,-0.105,0.13
1.761111111111111,-0.115,0.115
1.7638888888888888,-0.13,0.095
1.7666666666666664,-0.125,0.075
1.7694444444444444,-0.12,0.09
1.7722222222222221,-0.12,0.12
1.775,-0.105,0.125
1.7777777777777777,-0.11,0.12
1.7805555555555554,-0.13,0.095
1.7833333333333337,-0.135,0.075
1.7861111111111112,-0.155,0.085
1.788888888888889,-0.125,0.115
1.7916666666666667,-0.125,0.12
1.7944444444444445,-0.13,0.12
1.7972222222222223,-0.13,0.1
1.8,-0.135,0.075
1.8027777777777776,-0.13,0.085
1.805555555555556,-0.13,0.105
1.8083333333333333,-0.1,0.115
1.8111111111111111,-0.105,0.115
1.8138888888888889,-0.1,0.095
1.8166666666666667,-0.115,0.075
1.8194444444444444,-0.11,0.085
1.8222222222222224,-0.11,0.11
1.825,-0.1,0.115
1.8277777777777775,-0.1,0.115
1.8305555555555557,-0.115,0.075
1.8333333333333333,-0.12,0.075
1.836111111111111,-0.135,0.09
1.8388888888888888,-0.13,0.105
1.8416666666666663,-0.105,0.13
1.8444444444444448,-0.115,0.105
1.8472222222222223,-0.12,0.07
1.85,-0.13,0.065
1.8527777777777776,-0.135,0.105
1.855555555555556,-0.11,0.115
1.8583333333333332,-0.1,0.12
1.8611111111111112,-0.105,0.1
1.863888888888889,-0.11,0.075
1.8666666666666667,-0.12,0.06
1.869444444444445,-0.115,0.075
1.8722222222222225,-0.095,0.1
1.875,-0.09,0.115
1.8777777777777775,-0.09,0.105
1.8805555555555558,-0.105,0.065
1.8833333333333333,-0.105,0.06
1.886111111111111,-0.125,0.095
1.8888888888888888,-0.105,0.11
1.8916666666666664,-0.1,0.105
1.8944444444444444,-0.11,0.095
1.8972222222222224,-0.12,0.06
1.9,-0.125,0.06
1.9027777777777777,-0.14,0.085
1.9055555555555557,-0.11,0.1
1.9083333333333332,-0.105,0.1
1.9111111111111116,-0.1,0.085
1.913888888888889,-0.105,0.06
1.9166666666666667,-0.12,0.055
1.9194444444444447,-0.105,0.09
1.9222222222222225,-0.11,0.095
1.925,-0.095,0.085
1.9277777777777776,-0.1,0.075
1.930555555555556,-0.105,0.055
1.9333333333333333,-0.11,0.05
1.9361111111111111,-0.115,0.07
1.9388888888888889,-0.1,0.095
1.9416666666666667,-0.085,0.095
1.9444444444444444,-0.09,0.07
1.9472222222222224,-0.11,0.06
1.95,-0.115,0.055
1.9527777777777775,-0.115,0.085
1.9555555555555557,-0.12,0.105
1.9583333333333333,-0.1,0.095
1.961111111111111,-0.105,0.07
1.9638888888888888,-0.11,0.05
1.9666666666666663,-0.115,0.06
1.9694444444444448,-0.105,0.08
1.9722222222222223,-0.1,0.09
1.975,-0.08,0.08
1.9777777777777776,-0.08,0.06
1.980555555555556,-0.095,0.055
1.9833333333333332,-0.095,0.05
1.9861111111111112,-0.1,0.07
1.988888888888889,-0.085,0.09
1.9916666666666667,-0.08,0.08
1.994444444444445,-0.085,0.065
1.9972222222222225,-0.095,0.035
2.0,-0.11,0.04
2.0027777777777778,-0.12,0.055
2.0055555555555555,-0.12,0.075
2.0083333333333333,-0.095,0.065
2.011111111111111,-0.09,0.055
2.013888888888889,-0.115,0.03
2.016666666666666,-0.115,0.045
2.0194444444444444,-0.115,0.065
2.0222222222222226,-0.1,0.07
2.025,-0.105,0.075
2.0277777777777777,-0.095,0.035
2.0305555555555554,-0.095,0.025
2.033333333333333,-0.1,0.05
2.036111111111111,-0.105,0.065
2.0388888888888888,-0.09,0.065
2.041666666666666,-0.075,0.065
2.0444444444444443,-0.08,0.04
2.047222222222222,-0.1,0.025
2.05,-0.1,0.05
2.0527777777777776,-0.095,0.055
2.0555555555555554,-0.095,0.055
2.058333333333333,-0.095,0.05
2.061111111111111,-0.105,0.04
2.063888888888889,-0.1,0.035
2.066666666666667,-0.12,0.04
2.0694444444444446,-0.115,0.055
2.0722222222222224,-0.095,0.07
2.075,-0.08,0.065
2.077777777777778,-0.08,0.035
2.080555555555556,-0.095,0.035
2.083333333333333,-0.12,0.035
2.0861111111111117,-0.095,0.05
2.088888888888889,-0.105,0.06
2.091666666666667,-0.08,0.055
2.0944444444444446,-0.085,0.025
2.0972222222222223,-0.08,0.025
2.1,-0.095,0.025
2.102777777777778,-0.09,0.055
2.105555555555556,-0.085,0.05
2.108333333333333,-0.08,0.045
2.1111111111111116,-0.07,0.015
2.113888888888889,-0.09,0.015
2.1166666666666667,-0.105,0.035
2.1194444444444445,-0.115,0.045
2.1222222222222222,-0.095,0.055
2.125,-0.095,0.04
2.1277777777777778,-0.085,0.015
2.130555555555556,-0.11,0.015
2.133333333333333,-0.11,0.035
2.136111111111111,-0.11,0.05
2.138888888888889,-0.095,0.045
2.1416666666666666,-0.075,0.05
2.1444444444444444,-0.07,0.015
2.147222222222222,-0.085,0.015
2.15,-0.095,0.03
2.1527777777777777,-0.09,0.03
2.155555555555556,-0.08,0.05
2.158333333333333,-0.065,0.05
2.161111111111111,-0.06,0.015
2.1638888888888888,-0.075,0.005
2.1666666666666665,-0.09,0.02
2.1694444444444443,-0.095,0.04
2.172222222222222,-0.1,0.04
2.175,-0.085,0.03
2.1777777777777776,-0.085,0.02
2.1805555555555554,-0.09,0.01
2.183333333333333,-0.085,0.01
2.186111111111111,-0.105,0.03
2.188888888888889,-0.085,0.045
2.191666666666667,-0.08,0.035
2.1944444444444446,-0.08,0.01
2.1972222222222224,-0.09,0.005
2.2,-0.09,0.01
2.202777777777778,-0.1,0.035
2.205555555555556,-0.08,0.055
2.208333333333333,-0.075,0.045
2.2111111111111117,-0.07,0.03
2.213888888888889,-0.075,0.02
2.216666666666667,-0.085,0.04
2.2194444444444446,-0.085,0.05
2.2222222222222223,-0.07,0.07
2.225,-0.065,0.065
2.227777777777778,-0.07,0.05
2.230555555555556,-0.075,0.035
2.233333333333333,-0.08,0.035
2.2361111111111116,-0.085,0.06
2.238888888888889,-0.07,0.075
2.2416666666666667,-0.07,0.065
2.2444444444444445,-0.055,0.025
2.2472222222222222,-0.07,0.005
2.25,-0.065,0.01
2.2527777777777778,-0.075,0.015
2.255555555555556,-0.07,0.03
2.258333333333333,-0.055,0.025
2.261111111111111,-0.055,-0.01
2.263888888888889,-0.06,-0.035
2.2666666666666666,-0.095,-0.045
2.2694444444444444,-0.13,-0.055
2.272222222222222,-0.13,-0.08
2.275,-0.115,-0.12
2.2777777777777777,-0.105,-0.165
2.280555555555556,-0.115,-0.23
2.283333333333333,-0.125,-0.26
2.286111111111111,-0.085,-0.275
2.2888888888888888,-0.015,-0.28
2.2916666666666665,0.095,-0.265
2.2944444444444443,0.225,-0.27
2.297222222222222,0.315,-0.295
2.3,0.385,-0.285
2.3027777777777776,0.415,-0.24
2.3055555555555554,0.465,-0.18
2.308333333333333,0.515,-0.085
2.311111111111111,0.615,0.135
2.313888888888889,0.75,0.43
2.316666666666667,0.865,0.755
2.3194444444444446,0.9,0.97
2.3222222222222224,0.875,1.075
2.325,0.82,1.115
2.327777777777778,0.75,1.135
2.330555555555556,0.675,1.175
2.333333333333333,0.59,1.21
2.3361111111111117,0.455,1.23
2.338888888888889,0.3,1.22
2.341666666666667,0.115,1.16
2.3444444444444446,-0.06,1.045
2.3472222222222223,-0.16,0.92
2.35,-0.235,0.84
2.352777777777778,-0.25,0.815
2.355555555555556,-0.255,0.83
2.358333333333333,-0.29,0.835
2.3611111111111116,-0.305,0.82
2.363888888888889,-0.365,0.795
2.3666666666666667,-0.385,0.825
2.3694444444444445,-0.34,0.895
2.3722222222222222,-0.275,0.965
2.375,-0.245,0.985
2.3777777777777778,-0.19,0.985
2.380555555555556,-0.16,0.955
2.383333333333333,-0.1,0.935
2.386111111111111,-0.06,0.91
2.388888888888889,-0.05,0.855
2.3916666666666666,-0.03,0.755
2.3944444444444444,-0.065,0.6
2.397222222222222,-0.105,0.455
2.4,-0.15,0.315
2.4027777777777777,-0.17,0.22
2.405555555555556,-0.165,0.165
2.408333333333333,-0.145,0.125
2.411111111111111,-0.155,0.07
2.4138888888888888,-0.16,0.005
2.4166666666666665,-0.19,-0.01
2.4194444444444443,-0.17,-0.01
2.422222222222222,-0.16,-0.005
2.425,-0.15,-0.01
2.4277777777777776,-0.15,-0.02
2.4305555555555554,-0.155,-0.06
2.433333333333333,-0.17,-0.065
2.436111111111111,-0.175,-0.06
2.438888888888889,-0.15,-0.05
2.441666666666667,-0.155,-0.035
2.4444444444444446,-0.145,-0.04
2.4472222222222224,-0.155,-0.07
2.45,-0.17,-0.08
2.452777777777778,-0.16,-0.075
2.455555555555556,-0.165,-0.05
2.458333333333333,-0.15,-0.04
2.4611111111111117,-0.155,-0.05
2.463888888888889,-0.165,-0.08
2.466666666666667,-0.18,-0.095
2.4694444444444446,-0.17,-0.09
2.4722222222222223,-0.17,-0.08
2.475,-0.155,-0.055
2.477777777777778,-0.155,-0.065
2.480555555555556,-0.165,-0.075
2.483333333333333,-0.165,-0.105
2.4861111111111116,-0.18,-0.1
2.488888888888889,-0.16,-0.08
2.4916666666666667,-0.135,-0.07
2.4944444444444445,-0.135,-0.05
2.4972222222222222,-0.14,-0.1
2.5,-0.165,-0.1
2.5027777777777778,-0.145,-0.1
2.505555555555556,-0.125,-0.075
2.508333333333333,-0.115,-0.055
2.511111111111111,-0.12,-0.06
2.513888888888889,-0.125,-0.07
2.5166666666666666,-0.14,-0.105
2.5194444444444444,-0.125,-0.075
2.522222222222222,-0.115,-0.065
2.525,-0.095,-0.045
2.5277777777777777,-0.105,-0.04
2.530555555555556,-0.11,-0.08
2.533333333333333,-0.115,-0.08
2.536111111111111,-0.115,-0.07
2.5388888888888888,-0.1,-0.035
2.5416666666666665,-0.08,-0.025
2.5444444444444443,-0.08,-0.03
2.547222222222222,-0.085,-0.055
2.55,-0.075,-0.07
2.5527777777777776,-0.075,-0.06
2.5555555555555554,-0.065,-0.02
2.558333333333333,-0.035,-0.015
2.561111111111111,-0.035,-0.015
2.563888888888889,-0.06,-0.03
2.566666666666667,-0.065,-0.03
2.5694444444444446,-0.045,-0.025
2.5722222222222224,-0.03,0.01
2.575,-0.015,0.035
2.577777777777778,-0.02,0.035
2.580555555555556,-0.03,0.01
2.583333333333333,-0.04,0.0
2.5861111111111117,-0.04,0.025
2.588888888888889,-0.02,0.055
2.591666666666667,-0.01,0.065
2.5944444444444446,0.01,0.055
2.5972222222222223,-0.015,0.045
2.6,0.0,0.04
2.602777777777778,0.005,0.065
2.605555555555556,0.01,0.095
2.608333333333333,0.04,0.12
2.6111111111111116,0.04,0.105
2.613888888888889,0.045,0.07
2.6166666666666667,0.04,0.07
2.6194444444444445,0.065,0.105
2.6222222222222222,0.085,0.13
2.625,0.1,0.145
2.6277777777777778,0.09,0.13
2.630555555555556,0.085,0.11
2.633333333333333,0.075,0.115
2.636111111111111,0.07,0.13
2.638888888888889,0.09,0.165
2.6416666666666666,0.085,0.18
2.6444444444444444,0.095,0.16
2.647222222222222,0.1,0.145
2.65,0.105,0.145
2.6527777777777777,0.115,0.175
2.655555555555556,0.125,0.21
2.658333333333333,0.135,0.21
2.661111111111111,0.145,0.195
2.6638888888888888,0.14,0.18
2.6666666666666665,0.12,0.185
2.6694444444444443,0.125,0.21
2.672222222222222,0.15,0.23
2.675,0.175,0.23
2.6777777777777776,0.175,0.22
2.6805555555555554,0.16,0.205
2.683333333333333,0.155,0.215
2.686111111111111,0.15,0.24
2.688888888888889,0.17,0.26
2.691666666666667,0.18,0.26
2.6944444444444446,0.18,0.25
2.6972222222222224,0.175,0.225
2.7,0.155,0.245
2.702777777777778,0.16,0.265
2.705555555555556,0.18,0.285
2.708333333333333,0.195,0.285
2.7111111111111117,0.195,0.265
2.713888888888889,0.19,0.255
2.716666666666667,0.175,0.265
2.7194444444444446,0.185,0.295
2.7222222222222223,0.2,0.32
2.725,0.21,0.305
2.727777777777778,0.195,0.28
2.730555555555556,0.19,0.28
2.733333333333333,0.195,0.295
2.7361111111111116,0.185,0.325
2.738888888888889,0.2,0.34
2.7416666666666667,0.2,0.335
2.7444444444444445,0.19,0.32
2.7472222222222222,0.175,0.305
2.75,0.17,0.335
2.7527777777777778,0.165,0.36
2.755555555555556,0.175,0.375
2.758333333333333,0.18,0.36
2.761111111111111,0.175,0.34
2.763888888888889,0.165,0.335
2.7666666666666666,0.155,0.36
2.7694444444444444,0.16,0.38
2.772222222222222,0.155,0.405
2.775,0.165,0.385
2.7777777777777777,0.16,0.385
2.780555555555556,0.155,0.415
2.783333333333333,0.13,0.44
2.786111111111111,0.165,0.465
2.7888888888888888,0.16,0.45
2.7916666666666665,0.17,0.44
2.7944444444444443,0.145,0.44
2.797222222222222,0.135,0.46
2.8,0.13,0.48
2.8027777777777776,0.135,0.495
2.8055555555555554,0.145,0.485
2.808333333333333,0.135,0.48
2.811111111111111,0.13,0.465
2.813888888888889,0.13,0.485
2.816666666666667,0.135,0.51
2.8194444444444446,0.135,0.52
2.8222222222222224,0.15,0.5
2.825,0.14,0.485
2.827777777777778,0.125,0.48
2.830555555555556,0.13,0.5
2.833333333333333,0.14,0.515
2.8361111111111117,0.155,0.51
2.838888888888889,0.165,0.5
2.841666666666667,0.17,0.485
2.8444444444444446,0.165,0.49
2.8472222222222223,0.15,0.49
2.85,0.165,0.505
2.852777777777778,0.165,0.51
2.855555555555556,0.175,0.5
2.858333333333333,0.17,0.48
2.8611111111111116,0.15,0.485
2.863888888888889,0.165,0.49
2.8666666666666667,0.16,0.505
2.8694444444444445,0.175,0.515
2.8722222222222222,0.195,0.49
2.875,0.205,0.485
2.8777777777777778,0.195,0.47
2.880555555555556,0.19,0.485
2.883333333333333,0.205,0.515
2.886111111111111,0.21,0.51
2.888888888888889,0.225,0.495
2.8916666666666666,0.23,0.49
2.8944444444444444,0.23,0.485
2.897222222222222,0.22,0.495
2.9,0.24,0.515
2.9027777777777777,0.255,0.515
2.905555555555556,0.275,0.495
2.908333333333333,0.27,0.49
2.911111111111111,0.255,0.485
2.9138888888888888,0.235,0.475
2.9166666666666665,0.22,0.47
2.9194444444444443,0.24,0.465
2.922222222222222,0.23,0.44
2.925,0.21,0.395
2.9277777777777776,0.16,0.37
2.9305555555555554,0.15,0.355
2.933333333333333,0.16,0.35
2.936111111111111,0.16,0.35
2.938888888888889,0.185,0.35
2.941666666666667,0.175,0.345
2.9444444444444446,0.145,0.345
2.9472222222222224,0.13,0.325
2.95,0.13,0.32
2.952777777777778,0.14,0.32
2.955555555555556,0.155,0.32
2.958333333333333,0.15,0.345
2.9611111111111117,0.1,0.35
2.963888888888889,0.035,0.355
2.966666666666667,-0.075,0.335
2.9694444444444446,-0.195,0.345
2.9722222222222223,-0.31,0.34
2.975,-0.415,0.355
2.977777777777778,-0.5,0.36
2.980555555555556,-0.625,0.325
2.983333333333333,-0.785,0.23
2.9861111111111116,-0.945,0.155
2.988888888888889,-1.0,0.08
2.9916666666666667,-1.055,0.02
2.9944444444444445,-1.08,-0.025
2.9972222222222222,-1.11,-0.065
3.0,-1.145,-0.1
3.0027777777777778,-1.145,-0.11
3.005555555555556,-1.09,-0.07
3.008333333333333,-1.005,-0.005
3.011111111111111,-0.95,0.055
3.013888888888889,-0.92,0.11
3.0166666666666666,-0.895,0.135
3.0194444444444444,-0.87,0.155
3.022222222222222,-0.83,0.17
3.025,-0.805,0.17
3.0277777777777777,-0.805,0.14
3.030555555555556,-0.83,0.06
3.033333333333333,-0.845,-0.03
3.036111111111111,-0.84,-0.16
3.0388888888888888,-0.84,-0.31
3.0416666666666665,-0.84,-0.465
3.0444444444444443,-0.86,-0.62
3.047222222222222,-0.885,-0.765
3.05,-0.885,-0.865
3.0527777777777776,-0.87,-0.915
3.0555555555555554,-0.84,-0.945
3.058333333333333,-0.835,-0.96
3.061111111111111,-0.845,-0.995
3.063888888888889,-0.86,-1.025
3.066666666666667,-0.865,-1.03
3.0694444444444446,-0.855,-1.04
3.0722222222222224,-0.855,-1.025
3.075,-0.85,-1.025
3.077777777777778,-0.865,-1.055
3.080555555555556,-0.885,-1.065
3.083333333333333,-0.89,-1.075
3.0861111111111117,-0.875,-1.075
3.088888888888889,-0.855,-1.075
3.091666666666667,-0.855,-1.07
3.0944444444444446,-0.865,-1.065
3.0972222222222223,-0.88,-1.085
3.1,-0.88,-1.09
3.102777777777778,-0.875,-1.085
3.105555555555556,-0.85,-1.08
3.108333333333333,-0.86,-1.08
3.1111111111111116,-0.865,-1.1
3.113888888888889,-0.865,-1.11
3.1166666666666667,-0.88,-1.11
3.1194444444444445,-0.86,-1.09
3.1222222222222222,-0.83,-1.085
3.125,-0.835,-1.09
3.1277777777777778,-0.845,-1.11
3.130555555555556,-0.86,-1.115
3.133333333333333,-0.85,-1.115
3.136111111111111,-0.83,-1.09
3.138888888888889,-0.81,-1.065
3.1416666666666666,-0.81,-1.07
3.1444444444444444,-0.83,-1.09
3.147222222222222,-0.82,-1.1
3.15,-0.815,-1.08
3.1527777777777777,-0.8,-1.055
3.155555555555556,-0.775,-1.03
3.158333333333333,-0.77,-1.045
3.161111111111111,-0.77,-1.05
3.1638888888888888,-0.77,-1.055
3.1666666666666665,-0.755,-1.035
3.1694444444444443,-0.745,-1.005
3.172222222222222,-0.72,-0.98
3.175,-0.73,-0.98
3.1777777777777776,-0.73,-1.0
3.1805555555555554,-0.72,-0.995
3.183333333333333,-0.72,-0.975
3.186111111111111,-0.69,-0.94
3.188888888888889,-0.685,-0.915
3.191666666666667,-0.66,-0.925
3.1944444444444446,-0.68,-0.94
3.1972222222222224,-0.675,-0.945
3.2,-0.665,-0.9
3.202777777777778,-0.64,-0.87
3.205555555555556,-0.615,-0.83
3.208333333333333,-0.62,-0.84
3.2111111111111117,-0.62,-0.855
3.213888888888889,-0.625,-0.845
3.216666666666667,-0.62,-0.81
3.2194444444444446,-0.595,-0.77
3.2222222222222223,-0.58,-0.75
3.225,-0.575,-0.77
3.227777777777778,-0.565,-0.775
3.230555555555556,-0.57,-0.755
3.233333333333333,-0.545,-0.725
3.2361111111111116,-0.525,-0.68
3.238888888888889,-0.5,-0.675
3.2416666666666667,-0.505,-0.675
3.2444444444444445,-0.485,-0.685
3.2472222222222222,-0.475,-0.67
3.25,-0.475,-0.635
3.2527777777777778,-0.455,-0.61
3.255555555555556,-0.435,-0.605
3.258333333333333,-0.445,-0.62
3.261111111111111,-0.455,-0.63
3.263888888888889,-0.435,-0.605
3.2666666666666666,-0.425,-0.56
3.2694444444444444,-0.41,-0.525
3.272222222222222,-0.385,-0.535
3.275,-0.38,-0.535
3.2777777777777777,-0.37,-0.54
3.280555555555556,-0.365,-0.52
3.283333333333333,-0.36,-0.48
3.286111111111111,-0.335,-0.47
3.2888888888888888,-0.31,-0.455
3.2916666666666665,-0.32,-0.475
3.2944444444444443,-0.325,-0.475
3.297222222222222,-0.335,-0.46
3.3,-0.32,-0.425
3.3027777777777776,-0.31,-0.395
3.3055555555555554,-0.31,-0.385
3.308333333333333,-0.28,-0.405
3.311111111111111,-0.29,-0.4
3.313888888888889,-0.285,-0.385
3.316666666666667,-0.28,-0.345
3.3194444444444446,-0.255,-0.31
3.3222222222222224,-0.235,-0.305
3.325,-0.24,-0.33
3.327777777777778,-0.255,-0.315
3.330555555555556,-0.26,-0.295
3.333333333333333,-0.24,-0.265
3.3361111111111117,-0.22,-0.255
3.338888888888889,-0.195,-0.255
3.341666666666667,-0.205,-0.265
3.3444444444444446,-0.215,-0.27
3.3472222222222223,-0.22,-0.235
3.35,-0.215,-0.22
3.352777777777778,-0.22,-0.21
3.355555555555556,-0.21,-0.215
3.358333333333333,-0.21,-0.23
3.3611111111111116,-0.225,-0.215
3.363888888888889,-0.225,-0.2
3.3666666666666667,-0.22,-0.175
3.3694444444444445,-0.205,-0.145
3.3722222222222222,-0.205,-0.145
3.375,-0.21,-0.18
3.3777777777777778,-0.21,-0.165
3.380555555555556,-0.225,-0.145
3.383333333333333,-0.235,-0.13
3.386111111111111,-0.205,-0.105
3.388888888888889,-0.2,-0.11
3.3916666666666666,-0.19,-0.115
3.3944444444444444,-0.2,-0.095
3.397222222222222,-0.215,-0.075
3.4,-0.21,-0.055
3.4027777777777777,-0.195,-0.055
3.405555555555556,-0.195,-0.055
3.408333333333333,-0.2,-0.06
3.411111111111111,-0.21,-0.05
3.4138888888888888,-0.22,-0.025
3.4166666666666665,-0.215,-0.005
3.4194444444444443,-0.215,0.0
3.422222222222222,-0.21,-0.01
3.425,-0.2,-0.01
3.4277777777777776,-0.22,-0.005
3.4305555555555554,-0.225,0.015
3.433333333333333,-0.23,0.035
3.436111111111111,-0.21,0.025
3.438888888888889,-0.2,0.025
3.441666666666667,-0.2,0.02
3.4444444444444446,-0.205,0.025
3.4472222222222224,-0.21,0.04
3.45,-0.2,0.055
3.452777777777778,-0.2,0.05
3.455555555555556,-0.19,0.035
3.458333333333333,-0.19,0.04
3.4611111111111117,-0.205,0.035
3.463888888888889,-0.21,0.055
3.466666666666667,-0.22,0.07
3.4694444444444446,-0.2,0.065
3.4722222222222223,-0.195,0.055
3.475,-0.2,0.045
3.477777777777778,-0.205,0.055
3.480555555555556,-0.22,0.065
3.483333333333333,-0.215,0.065
3.4861111111111116,-0.205,0.075
3.488888888888889,-0.205,0.06
3.4916666666666667,-0.2,0.05
3.4944444444444445,-0.205,0.055
3.4972222222222222,-0.21,0.07
3.5,-0.205,0.08
3.5027777777777778,-0.19,0.075
3.505555555555556,-0.175,0.07
3.508333333333333,-0.18,0.075
3.511111111111111,-0.185,0.07
3.513888888888889,-0.2,0.08
3.5166666666666666,-0.195,0.09
3.5194444444444444,-0.19,0.085
3.522222222222222,-0.185,0.08
3.525,-0.2,0.08
3.5277777777777777,-0.205,0.09
3.530555555555556,-0.215,0.095
3.533333333333333,-0.22,0.09
3.536111111111111,-0.19,0.095
3.5388888888888888,-0.185,0.095
3.5416666666666665,-0.175,0.115
3.5444444444444443,-0.18,0.11
3.547222222222222,-0.185,0.1
3.55,-0.195,0.1
3.5527777777777776,-0.175,0.11
3.5555555555555554,-0.165,0.105
3.558333333333333,-0.165,0.12
3.561111111111111,-0.175,0.105
3.563888888888889,-0.19,0.1
3.566666666666667,-0.185,0.105
3.5694444444444446,-0.17,0.11
3.5722222222222224,-0.17,0.12
3.575,-0.18,0.13
3.577777777777778,-0.185,0.12
3.580555555555556,-0.195,0.115
3.583333333333333,-0.195,0.12
3.5861111111111117,-0.185,0.11
3.588888888888889,-0.17,0.12
3.591666666666667,-0.17,0.13
3.5944444444444446,-0.175,0.13
3.5972222222222223,-0.185,0.12
3.6,-0.185,0.12
3.602777777777778,-0.17,0.125
3.605555555555556,-0.16,0.13
3.6083333333333334,-0.18,0.135
3.611111111111111,-0.175,0.13
3.613888888888889,-0.17,0.125
3.6166666666666667,-0.175,0.115
3.619444444444444,-0.17,0.125
3.6222222222222222,-0.145,0.14
3.625,-0.15,0.145
3.6277777777777778,-0.17,0.145
3.630555555555556,-0.18,0.13
3.6333333333333333,-0.175,0.13
3.636111111111111,-0.18,0.14
3.638888888888889,-0.18,0.15
3.6416666666666666,-0.165,0.16
3.644444444444444,-0.19,0.145
3.647222222222222,-0.18,0.12
3.65,-0.195,0.13
3.6527777777777777,-0.18,0.145
3.655555555555556,-0.16,0.16
3.658333333333333,-0.175,0.165
3.661111111111111,-0.185,0.145
3.6638888888888888,-0.185,0.13
3.6666666666666665,-0.18,0.13
3.669444444444444,-0.16,0.155
3.672222222222222,-0.155,0.175
3.675,-0.17,0.16
3.6777777777777776,-0.165,0.135
3.6805555555555554,-0.175,0.125
3.683333333333333,-0.17,0.14
3.686111111111111,-0.175,0.155
3.688888888888889,-0.165,0.175
3.691666666666667,-0.165,0.17
3.6944444444444446,-0.175,0.15
3.6972222222222233,-0.19,0.14
3.7,-0.175,0.15
3.702777777777778,-0.17,0.16
3.705555555555556,-0.17,0.17
3.7083333333333335,-0.175,0.17
3.7111111111111112,-0.18,0.155
3.713888888888889,-0.185,0.14
3.716666666666667,-0.185,0.15
3.719444444444444,-0.165,0.165
3.7222222222222223,-0.155,0.18
3.725,-0.16,0.165
3.727777777777778,-0.155,0.145
3.730555555555556,-0.16,0.135
3.7333333333333334,-0.16,0.15
3.736111111111111,-0.15,0.17
3.738888888888889,-0.16,0.19
3.7416666666666667,-0.155,0.185
3.744444444444444,-0.17,0.15
3.7472222222222222,-0.175,0.145
3.75,-0.185,0.165
3.7527777777777778,-0.17,0.195
3.755555555555556,-0.175,0.18
3.7583333333333333,-0.175,0.165
3.761111111111111,-0.185,0.165
3.763888888888889,-0.185,0.14
3.7666666666666666,-0.175,0.175
3.769444444444444,-0.17,0.19
3.772222222222222,-0.16,0.195
3.775,-0.17,0.18
3.7777777777777777,-0.17,0.15
3.780555555555556,-0.175,0.15
3.783333333333333,-0.185,0.18
3.786111111111111,-0.165,0.21
3.7888888888888888,-0.155,0.2
3.7916666666666665,-0.18,0.18
3.794444444444444,-0.175,0.155
3.797222222222222,-0.185,0.16
3.8,-0.18,0.175
3.8027777777777776,-0.18,0.21
3.8055555555555554,-0.175,0.2
3.808333333333333,-0.17,0.185
3.811111111111111,-0.18,0.155
3.813888888888889,-0.2,0.175
3.816666666666667,-0.195,0.195
3.8194444444444446,-0.17,0.215
3.8222222222222233,-0.16,0.205
3.825,-0.165,0.2
3.827777777777778,-0.185,0.16
3.830555555555556,-0.175,0.175
3.8333333333333335,-0.16,0.205
3.8361111111111112,-0.16,0.225
3.838888888888889,-0.155,0.215
3.841666666666667,-0.15,0.19
3.844444444444444,-0.16,0.175
3.8472222222222223,-0.17,0.17
3.85,-0.165,0.2
3.852777777777778,-0.155,0.215
3.855555555555556,-0.16,0.215
3.8583333333333334,-0.155,0.195
3.861111111111111,-0.165,0.17
3.863888888888889,-0.18,0.175
3.8666666666666667,-0.185,0.21
3.869444444444444,-0.165,0.225
3.8722222222222222,-0.165,0.215
3.875,-0.155,0.19
3.8777777777777778,-0.17,0.17
3.880555555555556,-0.175,0.19
3.8833333333333333,-0.165,0.215
3.886111111111111,-0.16,0.23
3.888888888888889,-0.15,0.205
3.8916666666666666,-0.145,0.195
3.894444444444444,-0.155,0.19
3.897222222222222,-0.165,0.2
3.9,-0.165,0.23
3.9027777777777777,-0.15,0.235
3.905555555555556,-0.15,0.21
3.908333333333333,-0.165,0.205
3.911111111111111,-0.18,0.19
3.9138888888888888,-0.185,0.215
3.9166666666666665,-0.18,0.23
3.919444444444444,-0.16,0.24
3.922222222222222,-0.155,0.23
3.925,-0.15,0.205
3.9277777777777776,-0.17,0.195
3.9305555555555554,-0.18,0.215
3.933333333333333,-0.175,0.235
3.936111111111111,-0.16,0.23
3.938888888888889,-0.145,0.215
3.941666666666667,-0.155,0.195
3.9444444444444446,-0.15,0.195
3.9472222222222233,-0.17,0.225
3.95,-0.16,0.23
3.952777777777778,-0.155,0.23
3.955555555555556,-0.16,0.21
3.9583333333333335,-0.155,0.205
3.9611111111111112,-0.155,0.215
3.963888888888889,-0.17,0.225
3.966666666666667,-0.175,0.235
3.969444444444444,-0.165,0.24
3.9722222222222223,-0.155,0.225
3.975,-0.165,0.205
3.977777777777778,-0.165,0.22
3.980555555555556,-0.185,0.23
3.9833333333333334,-0.19,0.23
3.986111111111111,-0.17,0.235
3.988888888888889,-0.165,0.23
3.9916666666666667,-0.165,0.215
3.994444444444444,-0.175,0.215
3.9972222222222222,-0.185,0.225
4.0,-0.19,0.24
4.002777777777777,-0.17,0.24
4.005555555555556,-0.15,0.225
4.008333333333334,-0.14,0.21
4.011111111111111,-0.16,0.21
4.013888888888889,-0.175,0.23
4.016666666666667,-0.165,0.24
4.019444444444445,-0.17,0.235
4.022222222222222,-0.155,0.215
4.025000000000001,-0.165,0.22
4.027777777777778,-0.18,0.22
4.030555555555556,-0.185,0.23
4.033333333333333,-0.185,0.245
4.036111111111111,-0.175,0.235
4.038888888888889,-0.165,0.23
4.041666666666667,-0.165,0.215
4.044444444444444,-0.165,0.22
4.047222222222223,-0.18,0.23
4.05,-0.175,0.245
4.052777777777778,-0.17,0.23
4.055555555555555,-0.155,0.235
4.058333333333334,-0.15,0.22
4.061111111111111,-0.16,0.23
4.063888888888889,-0.165,0.25
4.066666666666666,-0.16,0.25
4.069444444444445,-0.155,0.245
4.072222222222222,-0.155,0.23
4.075,-0.155,0.225
4.0777777777777775,-0.165,0.24
4.080555555555556,-0.18,0.245
4.083333333333333,-0.185,0.245
4.086111111111111,-0.175,0.245
4.088888888888889,-0.145,0.24
4.091666666666667,-0.155,0.23
4.094444444444444,-0.165,0.24
4.097222222222222,-0.18,0.245
4.1,-0.175,0.255
4.102777777777778,-0.16,0.245
4.105555555555555,-0.15,0.24
4.108333333333333,-0.16,0.225
4.111111111111111,-0.17,0.225
4.113888888888889,-0.16,0.24
4.116666666666666,-0.155,0.265
4.1194444444444445,-0.135,0.25
4.122222222222222,-0.16,0.235
4.125,-0.155,0.225
4.127777777777778,-0.16,0.24
4.1305555555555555,-0.17,0.25
4.133333333333334,-0.17,0.26
4.136111111111111,-0.16,0.26
4.138888888888889,-0.17,0.24
4.141666666666667,-0.165,0.235
4.144444444444445,-0.175,0.245
4.147222222222222,-0.18,0.245
4.15,-0.185,0.26
4.152777777777778,-0.175,0.26
4.155555555555556,-0.16,0.245
4.158333333333333,-0.155,0.245
4.161111111111111,-0.175,0.25
4.163888888888889,-0.17,0.26
4.166666666666667,-0.17,0.265
4.169444444444444,-0.155,0.265
4.1722222222222225,-0.145,0.255
4.175,-0.155,0.24
4.177777777777778,-0.155,0.255
4.180555555555555,-0.16,0.27
4.183333333333334,-0.15,0.26
4.186111111111111,-0.145,0.27
4.188888888888889,-0.14,0.255
4.191666666666666,-0.15,0.245
4.194444444444445,-0.17,0.255
4.197222222222222,-0.18,0.255
4.2,-0.18,0.26
4.2027777777777775,-0.165,0.26
4.205555555555556,-0.145,0.255
4.208333333333333,-0.155,0.25
4.211111111111111,-0.18,0.265
4.213888888888889,-0.17,0.265
4.216666666666667,-0.165,0.27
4.219444444444444,-0.165,0.265
4.222222222222222,-0.145,0.255
4.225,-0.16,0.255
4.227777777777778,-0.185,0.27
4.230555555555555,-0.17,0.265
4.233333333333333,-0.155,0.265
4.236111111111111,-0.145,0.275
4.238888888888889,-0.13,0.26
4.241666666666666,-0.135,0.26
4.2444444444444445,-0.15,0.265
4.247222222222222,-0.16,0.275
4.25,-0.155,0.285
4.252777777777778,-0.14,0.285
4.2555555555555555,-0.145,0.27
4.258333333333334,-0.145,0.275
4.261111111111111,-0.15,0.27
4.263888888888889,-0.16,0.285
4.266666666666667,-0.155,0.285
4.269444444444445,-0.145,0.295
4.272222222222222,-0.14,0.27
4.275,-0.155,0.27
4.277777777777778,-0.155,0.275
4.280555555555556,-0.165,0.295
4.283333333333333,-0.15,0.305
4.286111111111111,-0.145,0.295
4.288888888888889,-0.14,0.29
4.291666666666667,-0.15,0.29
4.294444444444444,-0.165,0.29
4.2972222222222225,-0.175,0.3
4.3,-0.165,0.31
4.302777777777778,-0.135,0.295
4.305555555555555,-0.135,0.295
4.308333333333334,-0.145,0.29
4.311111111111111,-0.16,0.29
4.313888888888889,-0.16,0.31
4.316666666666666,-0.155,0.3
4.319444444444445,-0.14,0.31
4.322222222222222,-0.13,0.29
4.325,-0.135,0.27
4.3277777777777775,-0.145,0.27
4.330555555555556,-0.15,0.28
4.333333333333333,-0.155,0.31
4.336111111111111,-0.145,0.3
4.338888888888889,-0.125,0.295
4.341666666666667,-0.12,0.285
4.344444444444444,-0.13,0.285
4.347222222222222,-0.135,0.3
4.35,-0.13,0.295
4.352777777777778,-0.115,0.295
4.355555555555555,-0.11,0.265
4.358333333333333,-0.125,0.255
4.361111111111111,-0.165,0.25
4.363888888888889,-0.195,0.23
4.366666666666666,-0.225,0.19
4.3694444444444445,-0.24,0.15
4.372222222222222,-0.23,0.095
4.375,-0.24,0.06
4.377777777777778,-0.22,0.035
4.3805555555555555,-0.165,0.015
4.383333333333334,-0.055,0.01
4.386111111111111,0.08,0.015
4.388888888888889,0.21,0.045
4.391666666666667,0.3,0.04
4.394444444444445,0.33,0.07
4.397222222222222,0.355,0.115
4.4,0.41,0.22
4.402777777777778,0.54,0.435
4.405555555555556,0.69,0.78
4.408333333333333,0.775,1.095
4.411111111111111,0.775,1.275
4.413888888888889,0.72,1.325
4.416666666666667,0.665,1.345
4.419444444444444,0.615,1.4
4.4222222222222225,0.54,1.475
4.425,0.415,1.515
4.427777777777778,0.245,1.51
4.430555555555555,0.04,1.445
4.433333333333334,-0.12,1.37
4.436111111111111,-0.22,1.28
4.438888888888889,-0.26,1.2
4.441666666666666,-0.285,1.15
4.444444444444445,-0.335,1.135
4.447222222222222,-0.36,1.14
4.45,-0.395,1.125
4.4527777777777775,-0.425,1.135
4.455555555555556,-0.415,1.15
4.458333333333333,-0.385,1.19
4.461111111111111,-0.36,1.25
4.463888888888889,-0.335,1.285
4.466666666666667,-0.3,1.28
4.469444444444444,-0.245,1.28
4.472222222222222,-0.18,1.285
4.475,-0.14,1.255
4.477777777777778,-0.135,1.215
4.480555555555555,-0.125,1.12
4.483333333333333,-0.14,1.005
4.486111111111111,-0.18,0.87
4.488888888888889,-0.205,0.73
4.491666666666666,-0.23,0.605
4.4944444444444445,-0.25,0.495
4.497222222222222,-0.245,0.435
4.5,-0.24,0.375
4.502777777777778,-0.23,0.345
4.5055555555555555,-0.21,0.33
4.508333333333334,-0.22,0.32
4.511111111111111,-0.23,0.295
4.513888888888889,-0.23,0.29
4.516666666666667,-0.23,0.285
4.519444444444445,-0.22,0.27
4.522222222222222,-0.21,0.275
4.525,-0.22,0.27
4.527777777777778,-0.225,0.27
4.530555555555556,-0.235,0.26
4.533333333333333,-0.23,0.255
4.536111111111111,-0.225,0.265
4.538888888888889,-0.23,0.245
4.541666666666667,-0.235,0.26
4.544444444444444,-0.245,0.265
4.5472222222222225,-0.25,0.255
4.55,-0.245,0.23
4.552777777777778,-0.22,0.245
4.555555555555555,-0.215,0.26
4.558333333333334,-0.22,0.265
4.561111111111111,-0.225,0.25
4.563888888888889,-0.25,0.23
4.566666666666666,-0.23,0.23
4.569444444444445,-0.205,0.24
4.572222222222222,-0.195,0.26
4.575,-0.195,0.26
4.5777777777777775,-0.21,0.235
4.580555555555556,-0.22,0.225
4.583333333333333,-0.21,0.23
4.586111111111111,-0.19,0.265
4.588888888888889,-0.195,0.27
4.591666666666667,-0.2,0.245
4.594444444444444,-0.215,0.225
4.597222222222222,-0.2,0.225
4.6,-0.19,0.24
4.602777777777778,-0.185,0.27
4.605555555555555,-0.175,0.285
4.608333333333333,-0.18,0.27
4.611111111111111,-0.2,0.235
4.613888888888889,-0.195,0.235
4.616666666666666,-0.18,0.265
4.6194444444444445,-0.16,0.295
4.622222222222222,-0.15,0.295
4.625,-0.15,0.27
4.627777777777778,-0.15,0.255
4.6305555555555555,-0.155,0.255
4.633333333333334,-0.14,0.28
4.636111111111111,-0.125,0.31
4.638888888888889,-0.12,0.305
4.641666666666667,-0.13,0.295
4.644444444444445,-0.14,0.265
4.647222222222222,-0.145,0.27
4.65,-0.13,0.31
4.652777777777778,-0.115,0.34
4.655555555555556,-0.105,0.34
4.658333333333333,-0.12,0.32
4.661111111111111,-0.13,0.32
4.663888888888889,-0.12,0.315
4.666666666666667,-0.1,0.355
4.669444444444444,-0.08,0.375
4.6722222222222225,-0.075,0.37
4.675,-0.07,0.355
4.677777777777778,-0.07,0.34
4.680555555555555,-0.075,0.36
4.683333333333334,-0.065,0.39
4.686111111111111,-0.04,0.41
4.688888888888889,-0.03,0.4
4.691666666666666,-0.025,0.385
4.694444444444445,-0.035,0.395
4.697222222222222,-0.045,0.4
4.7,-0.045,0.435
4.7027777777777775,-0.035,0.45
4.705555555555556,-0.01,0.435
4.708333333333333,-0.01,0.43
4.711111111111111,-0.025,0.425
4.713888888888889,-0.025,0.435
4.716666666666667,-0.02,0.47
4.719444444444444,0.005,0.475
4.722222222222222,0.01,0.48
4.725,0.02,0.47
4.727777777777778,0.015,0.46
4.730555555555555,0.005,0.485
4.733333333333333,0.025,0.505
4.736111111111111,0.035,0.505
4.738888888888889,0.045,0.49
4.741666666666666,0.06,0.48
4.7444444444444445,0.04,0.495
4.747222222222222,0.04,0.52
4.75,0.05,0.52
4.752777777777778,0.065,0.515
4.7555555555555555,0.07,0.515
4.758333333333334,0.065,0.53
4.761111111111111,0.065,0.54
4.763888888888889,0.05,0.535
4.766666666666667,0.06,0.55
4.769444444444445,0.075,0.545
4.772222222222222,0.095,0.565
4.775,0.09,0.575
4.777777777777778,0.075,0.55
4.780555555555556,0.075,0.55
4.783333333333333,0.1,0.56
4.786111111111111,0.11,0.595
4.788888888888889,0.11,0.605
4.791666666666667,0.11,0.585
4.794444444444444,0.105,0.58
4.7972222222222225,0.1,0.575
4.8,0.105,0.595
4.802777777777778,0.1,0.62
4.805555555555555,0.11,0.61
4.808333333333334,0.115,0.595
4.811111111111111,0.1,0.6
4.813888888888889,0.095,0.615
4.816666666666666,0.095,0.64
4.819444444444445,0.1,0.64
4.822222222222222,0.095,0.63
4.825,0.095,0.615
4.8277777777777775,0.09,0.62
4.830555555555556,0.075,0.645
4.833333333333333,0.085,0.665
4.836111111111111,0.1,0.68
4.838888888888889,0.1,0.66
4.841666666666667,0.08,0.66
4.844444444444444,0.075,0.655
4.847222222222222,0.075,0.69
4.85,0.085,0.715
4.852777777777778,0.09,0.71
4.855555555555555,0.07,0.7
4.858333333333333,0.07,0.7
4.861111111111111,0.06,0.71
4.863888888888889,0.055,0.73
4.866666666666666,0.055,0.765
4.8694444444444445,0.065,0.765
4.872222222222222,0.06,0.74
4.875,0.05,0.735
4.877777777777778,0.05,0.75
4.8805555555555555,0.03,0.765
4.883333333333334,0.045,0.775
4.886111111111111,0.04,0.765
4.888888888888889,0.045,0.745
4.891666666666667,0.04,0.75
4.894444444444445,0.045,0.745
4.897222222222222,0.04,0.76
4.9,0.06,0.76
4.902777777777778,0.07,0.765
4.905555555555556,0.07,0.76
4.908333333333333,0.055,0.74
4.911111111111111,0.05,0.74
4.913888888888889,0.045,0.735
4.916666666666667,0.04,0.75
4.919444444444444,0.055,0.755
4.9222222222222225,0.065,0.74
4.925,0.05,0.72
4.927777777777778,0.055,0.735
4.930555555555555,0.05,0.745
4.933333333333334,0.07,0.75
4.936111111111111,0.085,0.735
4.938888888888889,0.09,0.73
4.941666666666666,0.09,0.73
4.944444444444445,0.09,0.735
4.947222222222222,0.1,0.745
4.95,0.105,0.735
4.9527777777777775,0.125,0.735
4.955555555555556,0.13,0.73
4.958333333333333,0.135,0.725
4.961111111111111,0.14,0.73
4.963888888888889,0.13,0.725
4.966666666666667,0.135,0.715
4.969444444444444,0.14,0.71
4.972222222222222,0.155,0.72
4.975,0.17,0.705
4.977777777777778,0.165,0.705
4.980555555555555,0.155,0.705
4.983333333333333,0.155,0.68
4.986111111111111,0.145,0.665
4.988888888888889,0.135,0.65
4.991666666666666,0.13,0.62
4.9944444444444445,0.11,0.605
4.997222222222222,0.11,0.565
5.0,0.14,0.525
5.002777777777778,0.16,0.495
5.0055555555555555,0.185,0.48
5.008333333333334,0.21,0.48
5.011111111111111,0.195,0.48
5.013888888888889,0.215,0.51
5.016666666666667,0.22,0.53
5.019444444444445,0.225,0.565
5.022222222222222,0.205,0.595
5.025,0.15,0.595
5.027777777777778,0.08,0.585
5.030555555555556,0.0,0.57
5.033333333333333,-0.075,0.605
5.036111111111111,-0.185,0.66
5.038888888888889,-0.28,0.71
5.041666666666667,-0.395,0.71
5.044444444444444,-0.52,0.685
5.0472222222222225,-0.65,0.635
5.05,-0.72,0.59
5.052777777777778,-0.82,0.54
5.055555555555555,-0.92,0.475
5.058333333333334,-0.995,0.405
5.061111111111111,-1.035,0.335
5.063888888888889,-1.045,0.3
5.066666666666666,-1.0,0.325
5.069444444444445,-0.95,0.37
5.072222222222222,-0.875,0.41
5.075,-0.77,0.44
5.0777777777777775,-0.695,0.445
5.080555555555556,-0.62,0.47
5.083333333333333,-0.555,0.48
5.086111111111111,-0.5,0.485
5.088888888888889,-0.485,0.445
5.091666666666667,-0.53,0.345
5.094444444444444,-0.595,0.185
5.097222222222222,-0.66,0.045
5.1,-0.71,-0.07
5.102777777777778,-0.75,-0.165
5.105555555555555,-0.8,-0.285
5.108333333333333,-0.835,-0.41
5.111111111111111,-0.86,-0.51
5.113888888888889,-0.885,-0.6
5.116666666666666,-0.88,-0.645
5.1194444444444445,-0.865,-0.67
5.122222222222222,-0.87,-0.7
5.125,-0.895,-0.745
5.127777777777778,-0.895,-0.765
5.1305555555555555,-0.905,-0.785
5.133333333333334,-0.905,-0.785
5.136111111111111,-0.895,-0.775
5.138888888888889,-0.9,-0.78
5.141666666666667,-0.905,-0.805
5.144444444444445,-0.915,-0.835
5.147222222222222,-0.91,-0.845
5.15,-0.91,-0.845
5.152777777777778,-0.895,-0.825
5.155555555555556,-0.9,-0.83
5.158333333333333,-0.905,-0.845
5.161111111111111,-0.915,-0.88
5.163888888888889,-0.915,-0.89
5.166666666666667,-0.91,-0.87
5.169444444444444,-0.91,-0.86
5.1722222222222225,-0.9,-0.85
5.175,-0.895,-0.875
5.177777777777778,-0.91,-0.9
5.180555555555555,-0.915,-0.91
5.183333333333334,-0.91,-0.895
5.186111111111111,-0.895,-0.875
5.188888888888889,-0.885,-0.88
5.191666666666666,-0.9,-0.9
5.194444444444445,-0.9,-0.925
5.197222222222222,-0.91,-0.93
5.2,-0.885,-0.915
5.2027777777777775,-0.875,-0.895
5.205555555555556,-0.865,-0.895
5.208333333333333,-0.87,-0.92
5.211111111111111,-0.89,-0.94
5.213888888888889,-0.88,-0.94
5.216666666666667,-0.86,-0.915
5.219444444444444,-0.84,-0.89
5.222222222222222,-0.825,-0.88
5.225,-0.845,-0.895
5.227777777777778,-0.83,-0.925
5.230555555555555,-0.835,-0.92
5.233333333333333,-0.815,-0.885
5.236111111111111,-0.81,-0.865
5.238888888888889,-0.805,-0.85
5.241666666666666,-0.8,-0.86
5.2444444444444445,-0.81,-0.885
5.247222222222222,-0.82,-0.89
5.25,-0.805,-0.855
5.252777777777778,-0.785,-0.83
5.2555555555555555,-0.785,-0.815
5.258333333333334,-0.79,-0.825
5.261111111111111,-0.805,-0.83
5.263888888888889,-0.795,-0.84
5.266666666666667,-0.775,-0.805
5.269444444444445,-0.745,-0.785
5.272222222222222,-0.72,-0.76
5.275,-0.72,-0.76
5.277777777777778,-0.715,-0.785
5.280555555555556,-0.715,-0.78
5.283333333333333,-0.705,-0.76
5.286111111111111,-0.675,-0.74
5.288888888888889,-0.675,-0.715
5.291666666666667,-0.655,-0.73
5.294444444444444,-0.685,-0.725
5.2972222222222225,-0.675,-0.73
5.3,-0.665,-0.71
5.302777777777778,-0.645,-0.67
5.305555555555555,-0.635,-0.65
5.308333333333334,-0.645,-0.65
5.311111111111111,-0.645,-0.665
5.313888888888889,-0.63,-0.665
5.316666666666666,-0.625,-0.655
5.319444444444445,-0.605,-0.63
5.322222222222222,-0.605,-0.605
5.325,-0.595,-0.615
5.3277777777777775,-0.62,-0.605
5.330555555555556,-0.61,-0.61
5.333333333333333,-0.6,-0.605
5.336111111111111,-0.57,-0.58
5.338888888888889,-0.555,-0.555
5.341666666666667,-0.555,-0.565
5.344444444444444,-0.57,-0.54
5.347222222222222,-0.57,-0.545
5.35,-0.55,-0.53
5.352777777777778,-0.52,-0.51
5.355555555555555,-0.51,-0.485
5.358333333333333,-0.51,-0.475
5.361111111111111,-0.51,-0.475
5.363888888888889,-0.515,-0.47
5.366666666666666,-0.505,-0.46
5.3694444444444445,-0.485,-0.43
5.372222222222222,-0.47,-0.4
5.375,-0.465,-0.4
5.377777777777778,-0.485,-0.41
5.3805555555555555,-0.47,-0.41
5.383333333333334,-0.45,-0.4
5.386111111111111,-0.43,-0.37
5.388888888888889,-0.415,-0.365
5.391666666666667,-0.42,-0.355
5.394444444444445,-0.42,-0.37
5.397222222222222,-0.42,-0.37
5.4,-0.4,-0.365
5.402777777777778,-0.385,-0.34
5.405555555555556,-0.375,-0.31
5.408333333333333,-0.365,-0.315
5.411111111111111,-0.375,-0.325
5.413888888888889,-0.37,-0.325
5.416666666666667,-0.365,-0.32
5.419444444444444,-0.35,-0.295
5.4222222222222225,-0.355,-0.275
5.425,-0.36,-0.28
5.427777777777778,-0.385,-0.29
5.430555555555555,-0.37,-0.28
5.433333333333334,-0.36,-0.29
5.436111111111111,-0.34,-0.255
5.438888888888889,-0.32,-0.24
5.441666666666666,-0.33,-0.235
5.444444444444445,-0.335,-0.25
5.447222222222222,-0.34,-0.25
5.45,-0.33,-0.23
5.4527777777777775,-0.305,-0.225
5.455555555555556,-0.295,-0.19
5.458333333333333,-0.305,-0.185
5.461111111111111,-0.3,-0.19
5.463888888888889,-0.3,-0.2
5.466666666666667,-0.3,-0.18
5.469444444444444,-0.275,-0.17
5.472222222222222,-0.265,-0.14
5.475,-0.27,-0.135
5.477777777777778,-0.285,-0.145
5.480555555555555,-0.285,-0.14
5.483333333333333,-0.27,-0.135
5.486111111111111,-0.26,-0.12
5.488888888888889,-0.25,-0.11
5.491666666666666,-0.25,-0.095
5.4944444444444445,-0.255,-0.1
5.497222222222222,-0.265,-0.105
5.5,-0.26,-0.105
5.502777777777778,-0.245,-0.075
5.5055555555555555,-0.24,-0.07
5.508333333333334,-0.23,-0.07
5.511111111111111,-0.245,-0.08
5.513888888888889,-0.24,-0.075
5.516666666666667,-0.24,-0.085
5.519444444444445,-0.22,-0.075
5.522222222222222,-0.22,-0.06
5.525,-0.22,-0.065
5.527777777777778,-0.23,-0.07
5.530555555555556,-0.225,-0.075
5.533333333333333,-0.22,-0.055
5.536111111111111,-0.23,-0.075
5.538888888888889,-0.22,-0.055
5.541666666666667,-0.23,-0.06
5.544444444444444,-0.245,-0.07
5.5472222222222225,-0.245,-0.06
5.55,-0.23,-0.065
5.552777777777778,-0.215,-0.055
5.555555555555555,-0.215,-0.07
5.558333333333334,-0.21,-0.065
5.561111111111111,-0.225,-0.06
5.563888888888889,-0.23,-0.08
5.566666666666666,-0.22,-0.07
5.569444444444445,-0.215,-0.07
5.572222222222222,-0.195,-0.065
5.575,-0.2,-0.065
5.5777777777777775,-0.21,-0.085
5.580555555555556,-0.215,-0.085
5.583333333333333,-0.205,-0.075
5.586111111111111,-0.215,-0.07
5.588888888888889,-0.2,-0.07
5.591666666666667,-0.205,-0.06
5.594444444444444,-0.22,-0.08
5.597222222222222,-0.22,-0.095
5.6,-0.215,-0.09
5.602777777777778,-0.205,-0.08
5.605555555555555,-0.21,-0.065
5.608333333333333,-0.21,-0.075
5.611111111111111,-0.215,-0.085
5.613888888888889,-0.225,-0.09
5.616666666666666,-0.225,-0.09
5.6194444444444445,-0.205,-0.09
5.622222222222222,-0.18,-0.065
5.625,-0.185,-0.065
5.627777777777778,-0.2,-0.09
5.6305555555555555,-0.19,-0.095
5.633333333333334,-0.2,-0.095
5.636111111111111,-0.175,-0.09
5.638888888888889,-0.16,-0.075
5.641666666666667,-0.185,-0.08
5.644444444444445,-0.195,-0.095
5.647222222222222,-0.205,-0.11
5.65,-0.2,-0.105
5.652777777777778,-0.205,-0.09
5.655555555555556,-0.195,-0.09
5.658333333333333,-0.195,-0.09
5.661111111111111,-0.2,-0.11
5.663888888888889,-0.21,-0.12
5.666666666666667,-0.205,-0.105
5.669444444444444,-0.185,-0.09
5.6722222222222225,-0.185,-0.085
5.675,-0.195,-0.1
5.677777777777778,-0.19,-0.12
5.680555555555555,-0.205,-0.125
5.683333333333334,-0.19,-0.12
5.686111111111111,-0.175,-0.105
5.688888888888889,-0.165,-0.085
5.691666666666666,-0.175,-0.105
5.694444444444445,-0.185,-0.125
5.697222222222222,-0.185,-0.125
5.7,-0.2,-0.11
5.7027777777777775,-0.185,-0.1
5.705555555555556,-0.175,-0.1
5.708333333333333,-0.185,-0.115
5.711111111111111,-0.205,-0.145
5.713888888888889,-0.21,-0.145
5.716666666666667,-0.195,-0.125
5.719444444444444,-0.18,-0.1
5.722222222222222,-0.19,-0.095
5.725,-0.19,-0.135
5.727777777777778,-0.205,-0.16
5.730555555555555,-0.2,-0.15
5.733333333333333,-0.185,-0.135
5.736111111111111,-0.18,-0.1
5.738888888888889,-0.17,-0.12
5.741666666666666,-0.175,-0.14
5.7444444444444445,-0.19,-0.165
5.747222222222222,-0.195,-0.16
5.75,-0.18,-0.13
5.752777777777778,-0.175,-0.115
5.7555555555555555,-0.17,-0.12
5.758333333333334,-0.175,-0.145
5.761111111111111,-0.19,-0.165
5.763888888888889,-0.2,-0.165
5.766666666666667,-0.195,-0.145
5.769444444444445,-0.18,-0.125
5.772222222222222,-0.185,-0.13
5.775,-0.175,-0.17
5.777777777777778,-0.195,-0.18
5.780555555555556,-0.195,-0.16
5.783333333333333,-0.185,-0.135
5.786111111111111,-0.175,-0.125
5.788888888888889,-0.175,-0.145
5.791666666666667,-0.18,-0.16
5.794444444444444,-0.18,-0.18
5.7972222222222225,-0.185,-0.17
5.8,-0.175,-0.15
5.802777777777778,-0.17,-0.135
5.805555555555555,-0.165,-0.155
5.808333333333334,-0.17,-0.175
5.811111111111111,-0.185,-0.195
5.813888888888889,-0.185,-0.175
5.816666666666666,-0.18,-0.145
5.819444444444445,-0.165,-0.145
5.822222222222222,-0.175,-0.16
5.825,-0.18,-0.185
5.8277777777777775,-0.2,-0.195
5.830555555555556,-0.2,-0.175
5.833333333333333,-0.185,-0.165
5.836111111111111,-0.175,-0.155
5.838888888888889,-0.17,-0.17
5.841666666666667,-0.175,-0.195
5.844444444444444,-0.19,-0.205
5.847222222222222,-0.2,-0.19
5.85,-0.17,-0.16
5.852777777777778,-0.155,-0.17
5.855555555555555,-0.145,-0.18
5.858333333333333,-0.16,-0.19
5.861111111111111,-0.17,-0.215
5.863888888888889,-0.175,-0.19
5.866666666666666,-0.175,-0.165
5.8694444444444445,-0.175,-0.17
5.872222222222222,-0.16,-0.185
5.875,-0.17,-0.205
5.877777777777778,-0.18,-0.195
5.8805555555555555,-0.19,-0.19
5.883333333333334,-0.17,-0.175
5.886111111111111,-0.185,-0.185
5.888888888888889,-0.165,-0.2
5.891666666666667,-0.165,-0.215
5.894444444444445,-0.175,-0.215
5.897222222222222,-0.185,-0.195
5.9,-0.165,-0.185
5.902777777777778,-0.15,-0.185
5.905555555555556,-0.15,-0.21
5.908333333333333,-0.155,-0.22
5.911111111111111,-0.16,-0.21
5.913888888888889,-0.175,-0.205
5.916666666666667,-0.165,-0.185
5.919444444444444,-0.15,-0.2
5.9222222222222225,-0.165,-0.205
5.925,-0.17,-0.23
5.927777777777778,-0.175,-0.215
5.930555555555555,-0.18,-0.205
5.933333333333334,-0.175,-0.195
5.936111111111111,-0.155,-0.195
5.938888888888889,-0.165,-0.22
5.941666666666666,-0.175,-0.22
5.944444444444445,-0.17,-0.225
5.947222222222222,-0.19,-0.215
5.95,-0.185,-0.205
5.9527777777777775,-0.17,-0.205
5.955555555555556,-0.16,-0.23
5.958333333333333,-0.165,-0.225
5.961111111111111,-0.175,-0.22
5.963888888888889,-0.175,-0.205
5.966666666666667,-0.15,-0.21
5.969444444444444,-0.15,-0.205
5.972222222222222,-0.15,-0.225
5.975,-0.155,-0.235
5.977777777777778,-0.165,-0.22
5.980555555555555,-0.18,-0.21
5.983333333333333,-0.18,-0.21
5.986111111111111,-0.165,-0.21
5.988888888888889,-0.17,-0.23
5.991666666666666,-0.165,-0.23
5.9944444444444445,-0.175,-0.23
5.997222222222222,-0.185,-0.215
6.0,-0.175,-0.225
6.002777777777778,-0.165,-0.215
6.0055555555555555,-0.165,-0.245
6.008333333333334,-0.185,-0.23
6.011111111111111,-0.185,-0.245
6.013888888888889,-0.175,-0.22
6.016666666666667,-0.155,-0.23
6.019444444444445,-0.145,-0.225
6.022222222222222,-0.16,-0.23
6.025,-0.17,-0.245
6.027777777777778,-0.16,-0.245
6.030555555555556,-0.17,-0.23
6.033333333333333,-0.17,-0.215
6.036111111111111,-0.155,-0.23
6.038888888888889,-0.155,-0.23
6.041666666666667,-0.16,-0.255
6.044444444444444,-0.165,-0.255
6.0472222222222225,-0.185,-0.245
6.05,-0.18,-0.21
6.052777777777778,-0.165,-0.225
6.055555555555555,-0.17,-0.24
6.058333333333334,-0.185,-0.24
6.061111111111111,-0.175,-0.24
6.063888888888889,-0.175,-0.245
6.066666666666666,-0.175,-0.22
6.069444444444445,-0.17,-0.225
6.072222222222222,-0.165,-0.235
6.075,-0.17,-0.24
6.0777777777777775,-0.17,-0.265
6.080555555555556,-0.175,-0.24
6.083333333333333,-0.15,-0.22
6.086111111111111,-0.15,-0.225
6.088888888888889,-0.15,-0.24
6.091666666666667,-0.165,-0.265
6.094444444444444,-0.175,-0.26
6.097222222222222,-0.195,-0.235
6.1,-0.165,-0.22
6.102777777777778,-0.165,-0.215
6.105555555555555,-0.155,-0.24
6.108333333333333,-0.165,-0.255
6.111111111111111,-0.185,-0.255
6.113888888888889,-0.175,-0.245
6.116666666666666,-0.165,-0.225
6.1194444444444445,-0.155,-0.225
6.122222222222222,-0.155,-0.235
6.125,-0.16,-0.255
6.127777777777778,-0.16,-0.26
6.1305555555555555,-0.175,-0.255
6.133333333333334,-0.16,-0.23
6.136111111111111,-0.15,-0.23
6.138888888888889,-0.145,-0.225
6.141666666666667,-0.145,-0.25
6.144444444444445,-0.155,-0.27
6.147222222222222,-0.155,-0.26
6.15,-0.155,-0.235
6.152777777777778,-0.15,-0.215
6.155555555555556,-0.145,-0.235
6.158333333333333,-0.17,-0.26
6.161111111111111,-0.175,-0.275
6.163888888888889,-0.185,-0.25
6.166666666666667,-0.175,-0.235
6.169444444444444,-0.16,-0.225
6.1722222222222225,-0.15,-0.235
6.175,-0.17,-0.26
6.177777777777778,-0.175,-0.27
6.180555555555555,-0.17,-0.26
6.183333333333334,-0.16,-0.245
6.186111111111111,-0.15,-0.21
6.188888888888889,-0.145,-0.23
6.191666666666666,-0.15,-0.255
6.194444444444445,-0.165,-0.28
6.197222222222222,-0.165,-0.255
6.2,-0.165,-0.24
6.2027777777777775,-0.145,-0.225
6.205555555555556,-0.14,-0.23
6.208333333333333,-0.155,-0.26
6.211111111111111,-0.17,-0.27
6.213888888888889,-0.175,-0.265
6.216666666666667,-0.155,-0.24
6.219444444444444,-0.155,-0.22
6.222222222222222,-0.155,-0.235
6.225,-0.16,-0.25
6.227777777777778,-0.16,-0.275
6.230555555555555,-0.165,-0.255
6.233333333333333,-0.16,-0.25
6.236111111111111,-0.145,-0.23
6.238888888888889,-0.15,-0.225
6.241666666666666,-0.155,-0.255
6.2444444444444445,-0.18,-0.27
6.247222222222222,-0.165,-0.265
6.25,-0.15,-0.245
6.252777777777778,-0.14,-0.225
6.2555555555555555,-0.145,-0.24
6.258333333333334,-0.145,-0.25
6.261111111111111,-0.15,-0.275
6.263888888888889,-0.165,-0.26
6.266666666666667,-0.17,-0.25
6.269444444444445,-0.145,-0.225
6.272222222222222,-0.14,-0.23
6.275,-0.145,-0.245
6.277777777777778,-0.17,-0.27
6.280555555555556,-0.16,-0.27
6.283333333333333,-0.155,-0.255
6.286111111111111,-0.15,-0.24
6.288888888888889,-0.14,-0.225
6.291666666666667,-0.17,-0.235
6.294444444444444,-0.18,-0.265
6.2972222222222225,-0.175,-0.27
6.3,-0.17,-0.255
6.302777777777778,-0.15,-0.235
6.305555555555555,-0.145,-0.23
6.308333333333334,-0.17,-0.245
6.311111111111111,-0.175,-0.255
6.313888888888889,-0.17,-0.26
6.316666666666666,-0.145,-0.255
6.319444444444445,-0.135,-0.235
6.322222222222222,-0.135,-0.225
6.325,-0.14,-0.225
6.3277777777777775,-0.15,-0.245
6.330555555555556,-0.165,-0.26
6.333333333333333,-0.17,-0.25
6.336111111111111,-0.165,-0.245
6.338888888888889,-0.15,-0.225
6.341666666666667,-0.165,-0.23
6.344444444444444,-0.17,-0.245
6.347222222222222,-0.175,-0.25
6.35,-0.165,-0.25
6.352777777777778,-0.15,-0.24
6.355555555555555,-0.145,-0.235
6.358333333333333,-0.155,-0.235
6.361111111111111,-0.165,-0.245
6.363888888888889,-0.17,-0.25
6.366666666666666,-0.155,-0.245
6.3694444444444445,-0.14,-0.235
6.372222222222222,-0.135,-0.225
6.375,-0.15,-0.23
6.377777777777778,-0.15,-0.245
6.3805555555555555,-0.155,-0.26
6.383333333333334,-0.14,-0.245
6.386111111111111,-0.135,-0.23
6.388888888888889,-0.135,-0.22
6.391666666666667,-0.15,-0.22
6.394444444444445,-0.165,-0.235
6.397222222222222,-0.175,-0.245
6.4,-0.165,-0.225
6.402777777777778,-0.145,-0.22
6.405555555555556,-0.15,-0.205
6.408333333333333,-0.17,-0.21
6.411111111111111,-0.17,-0.215
6.413888888888889,-0.16,-0.21
6.416666666666667,-0.14,-0.22
6.419444444444444,-0.13,-0.205
6.4222222222222225,-0.115,-0.185
6.425,-0.12,-0.19
6.427777777777778,-0.125,-0.2
6.430555555555555,-0.135,-0.205
6.433333333333334,-0.115,-0.23
6.436111111111111,-0.095,-0.21
6.438888888888889,-0.1,-0.225
6.441666666666666,-0.125,-0.225
6.444444444444445,-0.135,-0.235
6.447222222222222,-0.13,-0.255
6.45,-0.135,-0.255
6.4527777777777775,-0.14,-0.255
6.455555555555556,-0.145,-0.275
6.458333333333333,-0.185,-0.3
6.461111111111111,-0.225,-0.34
6.463888888888889,-0.23,-0.395
6.466666666666667,-0.235,-0.43
6.469444444444444,-0.22,-0.46
6.472222222222222,-0.195,-0.5
6.475,-0.165,-0.51
6.477777777777778,-0.08,-0.535
6.480555555555555,0.035,-0.54
6.483333333333333,0.16,-0.515
6.486111111111111,0.26,-0.505
6.488888888888889,0.32,-0.49
6.491666666666666,0.36,-0.46
6.4944444444444445,0.38,-0.405
6.497222222222222,0.455,-0.28
6.5,0.6,-0.02
6.502777777777778,0.72,0.295
6.5055555555555555,0.77,0.575
6.508333333333334,0.735,0.715
6.511111111111111,0.66,0.76
6.513888888888889,0.6,0.79
6.516666666666667,0.545,0.835
6.519444444444445,0.47,0.915
6.522222222222222,0.35,0.95
6.525,0.155,0.92
6.527777777777778,-0.045,0.85
6.530555555555556,-0.185,0.755
6.533333333333333,-0.245,0.675
6.536111111111111,-0.26,0.62
6.538888888888889,-0.29,0.585
6.541666666666667,-0.305,0.57
6.544444444444444,-0.36,0.55
6.5472222222222225,-0.405,0.545
6.55,-0.415,0.555
6.552777777777778,-0.385,0.6
6.555555555555555,-0.35,0.66
6.558333333333334,-0.32,0.685
6.561111111111111,-0.31,0.69
6.563888888888889,-0.27,0.69
6.566666666666666,-0.215,0.7
6.569444444444445,-0.145,0.705
6.572222222222222,-0.12,0.66
6.575,-0.12,0.585
6.5777777777777775,-0.145,0.46
6.580555555555556,-0.19,0.325
6.583333333333333,-0.205,0.195
6.586111111111111,-0.22,0.085
6.588888888888889,-0.225,-0.015
6.591666666666667,-0.235,-0.085
6.594444444444444,-0.24,-0.145
6.597222222222222,-0.225,-0.2
6.6,-0.225,-0.215
6.602777777777778,-0.21,-0.22
6.605555555555555,-0.205,-0.215
6.608333333333333,-0.205,-0.24
6.611111111111111,-0.22,-0.26
6.613888888888889,-0.215,-0.28
6.616666666666666,-0.21,-0.28
6.6194444444444445,-0.21,-0.26
6.622222222222222,-0.215,-0.26
6.625,-0.225,-0.265
6.627777777777778,-0.245,-0.295
6.6305555555555555,-0.235,-0.3
6.633333333333334,-0.22,-0.295
6.636111111111111,-0.215,-0.275
6.638888888888889,-0.22,-0.275
6.641666666666667,-0.22,-0.275
6.644444444444445,-0.225,-0.3
6.647222222222222,-0.22,-0.315
6.65,-0.205,-0.305
6.652777777777778,-0.21,-0.285
6.655555555555556,-0.19,-0.28
6.658333333333333,-0.2,-0.28
6.661111111111111,-0.21,-0.31
6.663888888888889,-0.2,-0.32
6.666666666666667,-0.195,-0.3
6.669444444444444,-0.175,-0.275
6.6722222222222225,-0.19,-0.265
6.675,-0.195,-0.28
6.677777777777778,-0.205,-0.305
6.680555555555555,-0.205,-0.315
6.683333333333334,-0.19,-0.3
6.686111111111111,-0.175,-0.275
6.688888888888889,-0.165,-0.27
6.691666666666666,-0.175,-0.285
6.694444444444445,-0.185,-0.305
6.697222222222222,-0.19,-0.31
6.7,-0.165,-0.285
6.7027777777777775,-0.15,-0.26
6.705555555555556,-0.145,-0.255
6.708333333333333,-0.15,-0.27
6.711111111111111,-0.15,-0.285
6.713888888888889,-0.155,-0.295
6.716666666666667,-0.145,-0.285
6.719444444444444,-0.125,-0.26
6.722222222222222,-0.125,-0.25
6.725,-0.135,-0.255
6.727777777777778,-0.145,-0.26
6.730555555555555,-0.13,-0.275
6.733333333333333,-0.145,-0.26
6.736111111111111,-0.115,-0.23
6.738888888888889,-0.11,-0.235
6.741666666666666,-0.12,-0.235
6.7444444444444445,-0.135,-0.25
6.747222222222222,-0.12,-0.255
6.75,-0.11,-0.24
6.752777777777778,-0.095,-0.205
6.7555555555555555,-0.095,-0.195
6.758333333333334,-0.095,-0.205
6.761111111111111,-0.105,-0.215
6.763888888888889,-0.1,-0.22
6.766666666666667,-0.075,-0.215
6.769444444444445,-0.06,-0.18
6.772222222222222,-0.055,-0.175
6.775,-0.075,-0.17
6.777777777777778,-0.07,-0.205
6.780555555555556,-0.05,-0.2
6.783333333333333,-0.045,-0.175
6.786111111111111,-0.03,-0.15
6.788888888888889,-0.04,-0.135
6.791666666666667,-0.04,-0.14
6.794444444444444,-0.06,-0.165
6.7972222222222225,-0.05,-0.165
6.8,-0.035,-0.135
6.802777777777778,-0.015,-0.115
6.805555555555555,-0.02,-0.105
6.808333333333334,-0.025,-0.115
6.811111111111111,-0.015,-0.13
6.813888888888889,-0.035,-0.12
6.816666666666666,-0.005,-0.115
6.819444444444445,0.01,-0.1
6.822222222222222,0.02,-0.08
6.825,-0.005,-0.08
6.8277777777777775,0.01,-0.09
6.830555555555556,0.0,-0.1
6.833333333333333,0.015,-0.085
6.836111111111111,0.04,-0.065
6.838888888888889,0.045,-0.05
6.841666666666667,0.045,-0.045
6.844444444444444,0.04,-0.05
6.847222222222222,0.05,-0.055
6.85,0.055,-0.07
6.852777777777778,0.065,-0.055
6.855555555555555,0.055,-0.04
6.858333333333333,0.06,-0.03
6.861111111111111,0.05,-0.04
6.863888888888889,0.04,-0.04
6.866666666666666,0.06,-0.05
6.8694444444444445,0.075,-0.035
6.872222222222222,0.075,-0.03
6.875,0.075,-0.02
6.877777777777778,0.075,-0.015
6.8805555555555555,0.065,-0.015
6.883333333333334,0.09,-0.02
6.886111111111111,0.1,-0.005
6.888888888888889,0.1,0.0
6.891666666666667,0.11,0.0
6.894444444444445,0.085,0.0
6.897222222222222,0.085,0.01
6.9,0.105,0.005
6.902777777777778,0.12,0.015
6.905555555555556,0.125,0.015
6.908333333333333,0.11,0.025
6.911111111111111,0.095,0.035
6.913888888888889,0.1,0.03
6.916666666666667,0.095,0.035
6.919444444444444,0.1,0.03
6.9222222222222225,0.1,0.035
6.925,0.095,0.04
6.927777777777778,0.085,0.05
6.930555555555555,0.08,0.06
6.933333333333334,0.09,0.075
6.936111111111111,0.085,0.07
6.938888888888889,0.09,0.065
6.941666666666666,0.08,0.055
6.944444444444445,0.08,0.08
6.947222222222222,0.08,0.09
6.95,0.07,0.105
6.9527777777777775,0.105,0.09
6.955555555555556,0.1,0.09
6.958333333333333,0.09,0.085
6.961111111111111,0.07,0.095
6.963888888888889,0.075,0.125
6.966666666666667,0.075,0.145
6.969444444444444,0.085,0.145
6.972222222222222,0.09,0.125
6.975,0.07,0.115
6.977777777777778,0.045,0.135
6.980555555555555,0.035,0.16
6.983333333333333,0.055,0.19
6.986111111111111,0.07,0.185
6.988888888888889,0.07,0.175
6.991666666666666,0.05,0.175
6.9944444444444445,0.03,0.17
6.997222222222222,0.035,0.21
7.0,0.045,0.225
7.002777777777778,0.06,0.215
7.0055555555555555,0.06,0.21
7.008333333333334,0.06,0.185
7.011111111111111,0.03,0.2
7.013888888888889,0.05,0.225
7.016666666666667,0.06,0.24
7.019444444444445,0.075,0.24
7.022222222222222,0.075,0.23
7.025,0.07,0.2
7.027777777777778,0.06,0.205
7.030555555555556,0.065,0.235
7.033333333333333,0.065,0.24
7.036111111111111,0.065,0.245
7.038888888888889,0.08,0.215
7.041666666666667,0.065,0.2
7.044444444444444,0.065,0.195
7.0472222222222225,0.065,0.215
7.05,0.07,0.23
7.052777777777778,0.065,0.235
7.055555555555555,0.085,0.215
7.058333333333334,0.08,0.205
7.061111111111111,0.07,0.195
7.063888888888889,0.08,0.22
7.066666666666666,0.09,0.225
7.069444444444445,0.105,0.235
7.072222222222222,0.11,0.215
7.075,0.11,0.185
7.0777777777777775,0.095,0.18
7.080555555555556,0.105,0.21
7.083333333333333,0.13,0.22
7.086111111111111,0.13,0.24
7.088888888888889,0.145,0.22
7.091666666666667,0.145,0.195
7.094444444444444,0.13,0.185
7.097222222222222,0.13,0.195
7.1,0.155,0.22
7.102777777777778,0.155,0.23
7.105555555555555,0.185,0.22
7.108333333333333,0.18,0.195
7.111111111111111,0.17,0.185
7.113888888888889,0.175,0.175
7.116666666666666,0.185,0.195
7.1194444444444445,0.2,0.2
7.122222222222222,0.185,0.185
7.125,0.165,0.15
7.127777777777778,0.145,0.12
7.1305555555555555,0.155,0.105
7.133333333333334,0.165,0.115
7.136111111111111,0.19,0.085
7.138888888888889,0.19,0.055
7.141666666666667,0.175,0.0
7.144444444444445,0.165,-0.065
7.147222222222222,0.17,-0.08
7.15,0.175,-0.075
7.152777777777778,0.185,-0.05
7.155555555555556,0.165,-0.035
7.158333333333333,0.135,-0.05
7.161111111111111,0.12,-0.055
7.163888888888889,0.08,-0.045
7.166666666666667,0.05,-0.02
7.169444444444444,0.005,-0.015
7.1722222222222225,-0.05,-0.04
7.175,-0.125,-0.065
7.177777777777778,-0.245,-0.085
7.180555555555555,-0.36,-0.07
7.183333333333334,-0.485,-0.035
7.186111111111111,-0.565,-0.025
7.188888888888889,-0.615,-0.02
7.191666666666666,-0.71,-0.05
7.194444444444445,-0.87,-0.095
7.197222222222222,-1.01,-0.135
7.2,-1.09,-0.16
7.2027777777777775,-1.105,-0.205
7.205555555555556,-1.1,-0.25
7.208333333333333,-1.095,-0.3
7.211111111111111,-1.12,-0.315
7.213888888888889,-1.11,-0.305
7.216666666666667,-1.06,-0.245
7.219444444444444,-0.975,-0.185
7.222222222222222,-0.89,-0.115
7.225,-0.83,-0.085
7.227777777777778,-0.79,-0.075
7.230555555555555,-0.75,-0.055
7.233333333333333,-0.705,-0.04
7.236111111111111,-0.71,-0.03
7.238888888888889,-0.72,-0.08
7.241666666666666,-0.745,-0.14
7.2444444444444445,-0.775,-0.22
7.247222222222222,-0.79,-0.29
7.25,-0.815,-0.355
7.252777777777778,-0.805,-0.44
7.2555555555555555,-0.82,-0.585
7.258333333333334,-0.85,-0.74
7.261111111111111,-0.875,-0.9
7.263888888888889,-0.895,-1.005
7.266666666666667,-0.89,-1.08
7.269444444444445,-0.895,-1.105
7.272222222222222,-0.88,-1.14
7.275,-0.895,-1.19
7.277777777777778,-0.895,-1.23
7.280555555555556,-0.905,-1.245
7.283333333333333,-0.9,-1.255
7.286111111111111,-0.885,-1.25
7.288888888888889,-0.89,-1.255
7.291666666666667,-0.91,-1.27
7.294444444444444,-0.91,-1.3
7.2972222222222225,-0.91,-1.31
7.3,-0.9,-1.315
7.302777777777778,-0.88,-1.295
7.305555555555555,-0.89,-1.285
7.308333333333334,-0.9,-1.31
7.311111111111111,-0.91,-1.32
7.313888888888889,-0.91,-1.34
7.316666666666666,-0.905,-1.325
7.319444444444445,-0.89,-1.32
7.322222222222222,-0.895,-1.32
7.325,-0.885,-1.33
7.3277777777777775,-0.9,-1.35
7.330555555555556,-0.895,-1.355
7.333333333333333,-0.885,-1.35
7.336111111111111,-0.865,-1.335
7.338888888888889,-0.865,-1.335
7.341666666666667,-0.865,-1.345
7.344444444444444,-0.87,-1.36
7.347222222222222,-0.87,-1.365
7.35,-0.86,-1.36
7.352777777777778,-0.85,-1.355
7.355555555555555,-0.84,-1.325
7.358333333333333,-0.84,-1.335
7.361111111111111,-0.84,-1.34
7.363888888888889,-0.845,-1.345
7.366666666666666,-0.825,-1.335
7.3694444444444445,-0.81,-1.31
7.372222222222222,-0.79,-1.305
7.375,-0.79,-1.305
7.377777777777778,-0.805,-1.31
7.3805555555555555,-0.805,-1.31
7.383333333333334,-0.79,-1.3
7.386111111111111,-0.77,-1.275
7.388888888888889,-0.765,-1.265
7.391666666666667,-0.765,-1.265
7.394444444444445,-0.77,-1.26
7.397222222222222,-0.77,-1.265
7.4,-0.755,-1.245
7.402777777777778,-0.725,-1.22
7.405555555555556,-0.72,-1.2
7.408333333333333,-0.715,-1.2
7.411111111111111,-0.735,-1.195
7.413888888888889,-0.725,-1.2
7.416666666666667,-0.705,-1.18
7.419444444444444,-0.695,-1.15
7.4222222222222225,-0.67,-1.135
7.425,-0.655,-1.125
7.427777777777778,-0.655,-1.135
7.430555555555555,-0.655,-1.125
7.433333333333334,-0.64,-1.11
7.436111111111111,-0.635,-1.085
7.438888888888889,-0.625,-1.065
7.441666666666666,-0.62,-1.055
7.444444444444445,-0.635,-1.06
7.447222222222222,-0.635,-1.05
7.45,-0.615,-1.045
7.4527777777777775,-0.6,-1.005
7.455555555555556,-0.585,-0.995
7.458333333333333,-0.58,-0.99
7.461111111111111,-0.585,-0.98
7.463888888888889,-0.585,-0.975
7.466666666666667,-0.55,-0.96
7.469444444444444,-0.535,-0.935
7.472222222222222,-0.535,-0.91
7.475,-0.525,-0.895
7.477777777777778,-0.525,-0.895
7.480555555555555,-0.515,-0.895
7.483333333333333,-0.505,-0.875
7.486111111111111,-0.48,-0.86
7.488888888888889,-0.47,-0.83
7.491666666666666,-0.47,-0.83
7.4944444444444445,-0.47,-0.82
7.497222222222222,-0.465,-0.825
7.5,-0.45,-0.795
7.502777777777778,-0.43,-0.77
7.5055555555555555,-0.415,-0.75
7.508333333333334,-0.42,-0.73
7.511111111111111,-0.41,-0.74
7.513888888888889,-0.405,-0.725
7.516666666666667,-0.385,-0.715
7.519444444444445,-0.35,-0.67
7.522222222222222,-0.33,-0.655
7.525,-0.335,-0.66
7.527777777777778,-0.35,-0.665
7.530555555555556,-0.34,-0.645
7.533333333333333,-0.33,-0.635
7.536111111111111,-0.3,-0.6
7.538888888888889,-0.305,-0.585
7.541666666666667,-0.295,-0.595
7.544444444444444,-0.285,-0.6
7.5472222222222225,-0.275,-0.6
7.55,-0.255,-0.6
7.552777777777778,-0.255,-0.565
7.555555555555555,-0.245,-0.565
7.558333333333334,-0.26,-0.565
7.561111111111111,-0.275,-0.57
7.563888888888889,-0.275,-0.57
7.566666666666666,-0.265,-0.56
7.569444444444445,-0.255,-0.52
7.572222222222222,-0.255,-0.51
7.575,-0.25,-0.535
7.5777777777777775,-0.245,-0.54
7.580555555555556,-0.255,-0.535
7.583333333333333,-0.245,-0.505
7.586111111111111,-0.21,-0.485
7.588888888888889,-0.225,-0.475
7.591666666666667,-0.24,-0.49
7.594444444444444,-0.245,-0.51
7.597222222222222,-0.245,-0.495
7.6,-0.235,-0.47
7.602777777777778,-0.235,-0.44
7.605555555555555,-0.23,-0.43
7.608333333333333,-0.22,-0.44
7.611111111111111,-0.24,-0.455
7.613888888888889,-0.25,-0.42
7.616666666666666,-0.25,-0.38
7.6194444444444445,-0.235,-0.365
7.622222222222222,-0.23,-0.35
7.625,-0.24,-0.375
7.627777777777778,-0.24,-0.385
7.6305555555555555,-0.24,-0.365
7.633333333333334,-0.23,-0.325
7.636111111111111,-0.22,-0.3
7.638888888888889,-0.22,-0.29
7.641666666666667,-0.22,-0.305
7.644444444444445,-0.23,-0.325
7.647222222222222,-0.23,-0.305
7.65,-0.24,-0.275
7.652777777777778,-0.205,-0.245
7.655555555555556,-0.195,-0.265
7.658333333333333,-0.215,-0.275
7.661111111111111,-0.225,-0.29
7.663888888888889,-0.225,-0.27
7.666666666666667,-0.215,-0.245
7.669444444444444,-0.205,-0.225
7.6722222222222225,-0.21,-0.225
7.675,-0.23,-0.245
7.677777777777778,-0.235,-0.255
7.680555555555555,-0.24,-0.25
7.683333333333334,-0.21,-0.225
7.686111111111111,-0.21,-0.2
7.688888888888889,-0.2,-0.21
7.691666666666666,-0.225,-0.235
7.694444444444445,-0.225,-0.245
7.697222222222222,-0.225,-0.235
7.7,-0.21,-0.19
7.7027777777777775,-0.195,-0.185
7.705555555555556,-0.185,-0.205
7.708333333333333,-0.195,-0.225
7.711111111111111,-0.21,-0.23
7.713888888888889,-0.21,-0.205
7.716666666666667,-0.205,-0.185
7.719444444444444,-0.195,-0.185
7.722222222222222,-0.195,-0.205
7.725,-0.2,-0.23
7.727777777777778,-0.21,-0.22
7.730555555555555,-0.215,-0.19
7.733333333333333,-0.21,-0.185
7.736111111111111,-0.215,-0.18
7.738888888888889,-0.19,-0.195
7.741666666666666,-0.2,-0.215
7.7444444444444445,-0.205,-0.215
7.747222222222222,-0.215,-0.19
7.75,-0.205,-0.17
7.752777777777778,-0.195,-0.19
7.7555555555555555,-0.195,-0.195
7.758333333333334,-0.205,-0.205
7.761111111111111,-0.2,-0.21
7.763888888888889,-0.2,-0.19
7.766666666666667,-0.195,-0.175
7.769444444444445,-0.19,-0.165
7.772222222222222,-0.18,-0.195
7.775,-0.195,-0.205
7.777777777777778,-0.19,-0.21
7.780555555555556,-0.205,-0.185
7.783333333333333,-0.21,-0.165
7.786111111111111,-0.195,-0.175
7.788888888888889,-0.19,-0.19
7.791666666666667,-0.195,-0.21
7.794444444444444,-0.21,-0.2
7.7972222222222225,-0.21,-0.185
7.8,-0.19,-0.17
7.802777777777778,-0.19,-0.17
7.805555555555555,-0.18,-0.185
7.808333333333334,-0.19,-0.195
7.811111111111111,-0.2,-0.19
7.813888888888889,-0.195,-0.175
7.816666666666666,-0.19,-0.165
7.819444444444445,-0.165,-0.185
7.822222222222222,-0.155,-0.185
7.825,-0.175,-0.19
7.8277777777777775,-0.195,-0.18
7.830555555555556,-0.205,-0.175
7.833333333333333,-0.185,-0.165
7.836111111111111,-0.19,-0.165
7.838888888888889,-0.19,-0.18
7.841666666666667,-0.19,-0.185
7.844444444444444,-0.21,-0.18
7.847222222222222,-0.21,-0.165
7.85,-0.19,-0.16
7.852777777777778,-0.185,-0.17
7.855555555555555,-0.175,-0.18
7.858333333333333,-0.19,-0.175
7.861111111111111,-0.2,-0.16
7.863888888888889,-0.2,-0.16
7.866666666666666,-0.195,-0.155
7.8694444444444445,-0.175,-0.175
7.872222222222222,-0.17,-0.175
7.875,-0.18,-0.19
7.877777777777778,-0.18,-0.185
7.8805555555555555,-0.19,-0.165
7.883333333333334,-0.175,-0.16
7.886111111111111,-0.17,-0.17
7.888888888888889,-0.165,-0.18
7.891666666666667,-0.19,-0.185
7.894444444444445,-0.185,-0.185
7.897222222222222,-0.195,-0.165
7.9,-0.185,-0.155
7.902777777777778,-0.17,-0.17
7.905555555555556,-0.165,-0.185
7.908333333333333,-0.175,-0.19
7.911111111111111,-0.19,-0.18
7.913888888888889,-0.2,-0.165
7.916666666666667,-0.19,-0.16
7.919444444444444,-0.17,-0.175
7.9222222222222225,-0.165,-0.165
7.925,-0.175,-0.18
7.927777777777778,-0.17,-0.18
7.930555555555555,-0.18,-0.155
7.933333333333334,-0.18,-0.155
7.936111111111111,-0.155,-0.155
7.938888888888889,-0.16,-0.17
7.941666666666666,-0.17,-0.18
7.944444444444445,-0.19,-0.175
7.947222222222222,-0.18,-0.16
7.95,-0.175,-0.16
7.9527777777777775,-0.17,-0.17
7.955555555555556,-0.16,-0.185
7.958333333333333,-0.175,-0.18
7.961111111111111,-0.175,-0.175
7.963888888888889,-0.2,-0.165
7.966666666666667,-0.18,-0.15
7.969444444444444,-0.16,-0.16
7.972222222222222,-0.175,-0.175
7.975,-0.175,-0.19
7.977777777777778,-0.19,-0.16
7.980555555555555,-0.19,-0.16
7.983333333333333,-0.175,-0.165
7.986111111111111,-0.155,-0.165
7.988888888888889,-0.15,-0.185
7.991666666666666,-0.17,-0.175
7.9944444444444445,-0.175,-0.17
7.997222222222222,-0.19,-0.165
8.0,-0.175,-0.17
8.002777777777778,-0.18,-0.18
8.005555555555556,-0.175,-0.18
8.008333333333333,-0.185,-0.185
8.011111111111111,-0.195,-0.175
8.01388888888889,-0.2,-0.17
8.016666666666667,-0.195,-0.165
8.019444444444444,-0.175,-0.17
8.022222222222222,-0.19,-0.18
8.025,-0.19,-0.175
8.027777777777779,-0.205,-0.175
8.030555555555555,-0.2,-0.17
8.033333333333333,-0.18,-0.17
8.036111111111111,-0.17,-0.17
8.03888888888889,-0.175,-0.175
8.041666666666666,-0.175,-0.185
8.044444444444444,-0.185,-0.185
8.047222222222222,-0.205,-0.17
8.05,-0.19,-0.175
8.052777777777777,-0.17,-0.195
8.055555555555555,-0.165,-0.185
8.058333333333334,-0.175,-0.2
8.061111111111112,-0.185,-0.18
8.063888888888888,-0.2,-0.18
8.066666666666666,-0.18,-0.175
8.069444444444445,-0.175,-0.185
8.072222222222223,-0.175,-0.2
8.075,-0.185,-0.19
8.077777777777778,-0.195,-0.175
8.080555555555556,-0.19,-0.17
8.083333333333334,-0.185,-0.17
8.08611111111111,-0.18,-0.185
8.088888888888889,-0.185,-0.19
8.091666666666667,-0.19,-0.195
8.094444444444445,-0.195,-0.175
8.097222222222221,-0.195,-0.17
8.1,-0.19,-0.17
8.102777777777778,-0.17,-0.18
8.105555555555556,-0.175,-0.185
8.108333333333333,-0.17,-0.205
8.11111111111111,-0.185,-0.185
8.113888888888889,-0.2,-0.175
8.116666666666667,-0.17,-0.175
8.119444444444444,-0.17,-0.185
8.122222222222222,-0.16,-0.2
8.125,-0.195,-0.195
8.127777777777778,-0.185,-0.205
8.130555555555556,-0.19,-0.18
8.133333333333333,-0.185,-0.17
8.136111111111111,-0.175,-0.185
8.13888888888889,-0.17,-0.195
8.141666666666667,-0.185,-0.19
8.144444444444444,-0.18,-0.19
8.147222222222222,-0.185,-0.17
8.15,-0.18,-0.17
8.152777777777779,-0.17,-0.18
8.155555555555555,-0.155,-0.185
8.158333333333333,-0.17,-0.205
8.161111111111111,-0.18,-0.195
8.16388888888889,-0.18,-0.175
8.166666666666666,-0.165,-0.165
8.169444444444444,-0.175,-0.18
8.172222222222222,-0.165,-0.185
8.175,-0.165,-0.205
8.177777777777777,-0.18,-0.19
8.180555555555555,-0.185,-0.18
8.183333333333334,-0.19,-0.175
8.186111111111112,-0.175,-0.185
8.188888888888888,-0.175,-0.2
8.191666666666666,-0.185,-0.205
8.194444444444445,-0.18,-0.19
8.197222222222223,-0.19,-0.18
8.2,-0.175,-0.165
8.202777777777778,-0.18,-0.185
8.205555555555556,-0.18,-0.185
8.208333333333334,-0.17,-0.205
8.21111111111111,-0.185,-0.19
8.213888888888889,-0.18,-0.185
8.216666666666667,-0.17,-0.18
8.219444444444445,-0.155,-0.185
8.222222222222221,-0.155,-0.19
8.225,-0.165,-0.195
8.227777777777778,-0.165,-0.19
8.230555555555556,-0.17,-0.18
8.233333333333333,-0.165,-0.17
8.23611111111111,-0.155,-0.185
8.238888888888889,-0.155,-0.195
8.241666666666667,-0.175,-0.195
8.244444444444444,-0.19,-0.2
8.247222222222222,-0.185,-0.18
8.25,-0.175,-0.18
8.252777777777778,-0.17,-0.195
8.255555555555556,-0.17,-0.21
8.258333333333333,-0.175,-0.205
8.261111111111111,-0.18,-0.195
8.26388888888889,-0.175,-0.18
8.266666666666667,-0.17,-0.175
8.269444444444444,-0.16,-0.175
8.272222222222222,-0.165,-0.195
8.275,-0.17,-0.195
8.277777777777779,-0.175,-0.205
8.280555555555555,-0.17,-0.18
8.283333333333333,-0.16,-0.18
8.286111111111111,-0.155,-0.185
8.28888888888889,-0.165,-0.195
8.291666666666666,-0.18,-0.205
8.294444444444444,-0.19,-0.2
8.297222222222222,-0.19,-0.185
8.3,-0.185,-0.18
8.302777777777777,-0.18,-0.19
8.305555555555555,-0.17,-0.21
8.308333333333334,-0.17,-0.215
8.311111111111112,-0.195,-0.205
8.313888888888888,-0.19,-0.19
8.316666666666666,-0.17,-0.18
8.319444444444445,-0.17,-0.19
8.322222222222223,-0.165,-0.2
8.325,-0.18,-0.205
8.327777777777778,-0.195,-0.21
8.330555555555556,-0.18,-0.195
8.333333333333334,-0.17,-0.18
8.33611111111111,-0.155,-0.19
8.338888888888889,-0.16,-0.2
8.341666666666667,-0.17,-0.215
8.344444444444445,-0.17,-0.205
8.347222222222221,-0.18,-0.195
8.35,-0.16,-0.18
8.352777777777778,-0.16,-0.18
8.355555555555556,-0.175,-0.21
8.358333333333333,-0.175,-0.21
8.36111111111111,-0.19,-0.2
8.363888888888889,-0.19,-0.18
8.366666666666667,-0.19,-0.175
8.369444444444444,-0.175,-0.19
8.372222222222222,-0.175,-0.2
8.375,-0.185,-0.21
8.377777777777778,-0.185,-0.205
8.380555555555556,-0.18,-0.18
8.383333333333333,-0.17,-0.19
8.386111111111111,-0.165,-0.185
8.38888888888889,-0.165,-0.215
8.391666666666667,-0.17,-0.22
8.394444444444444,-0.17,-0.205
8.397222222222222,-0.165,-0.195
8.4,-0.165,-0.185
8.402777777777779,-0.155,-0.205
8.405555555555555,-0.145,-0.21
8.408333333333333,-0.16,-0.205
8.411111111111111,-0.195,-0.21
8.41388888888889,-0.19,-0.195
8.416666666666666,-0.175,-0.18
8.419444444444444,-0.16,-0.205
8.422222222222222,-0.165,-0.21
8.425,-0.17,-0.215
8.427777777777777,-0.175,-0.21
8.430555555555555,-0.175,-0.195
8.433333333333334,-0.17,-0.195
8.436111111111112,-0.155,-0.215
8.438888888888888,-0.165,-0.215
8.441666666666666,-0.17,-0.22
8.444444444444445,-0.165,-0.205
8.447222222222223,-0.18,-0.2
8.45,-0.16,-0.2
8.452777777777778,-0.145,-0.21
8.455555555555556,-0.145,-0.21
8.458333333333334,-0.16,-0.215
8.46111111111111,-0.165,-0.195
8.463888888888889,-0.185,-0.195
8.466666666666667,-0.18,-0.195
8.469444444444445,-0.175,-0.205
8.472222222222221,-0.165,-0.2
8.475,-0.155,-0.2
8.477777777777778,-0.185,-0.2
8.480555555555556,-0.185,-0.19
8.483333333333333,-0.175,-0.205
8.48611111111111,-0.155,-0.21
8.488888888888889,-0.16,-0.21
8.491666666666667,-0.185,-0.205
8.494444444444444,-0.195,-0.205
8.497222222222222,-0.185,-0.195
8.5,-0.165,-0.195
8.502777777777778,-0.155,-0.205
8.505555555555556,-0.15,-0.205
8.508333333333333,-0.16,-0.195
8.511111111111111,-0.185,-0.185
8.51388888888889,-0.17,-0.185
8.516666666666667,-0.155,-0.2
8.519444444444444,-0.155,-0.195
8.522222222222222,-0.17,-0.18
8.525,-0.175,-0.185
8.527777777777779,-0.18,-0.195
8.530555555555555,-0.18,-0.2
8.533333333333333,-0.17,-0.2
8.536111111111111,-0.16,-0.195
8.53888888888889,-0.16,-0.18
8.541666666666666,-0.165,-0.18
8.544444444444444,-0.175,-0.2
8.547222222222222,-0.2,-0.195
8.55,-0.16,-0.19
8.552777777777777,-0.155,-0.19
8.555555555555555,-0.15,-0.175
8.558333333333334,-0.155,-0.175
8.561111111111112,-0.16,-0.195
8.563888888888888,-0.15,-0.21
8.566666666666666,-0.13,-0.18
8.569444444444445,-0.125,-0.18
8.572222222222223,-0.12,-0.17
8.575,-0.13,-0.185
8.577777777777778,-0.135,-0.185
8.580555555555556,-0.14,-0.195
8.583333333333334,-0.13,-0.185
8.58611111111111,-0.105,-0.16
8.588888888888889,-0.105,-0.16
8.591666666666667,-0.13,-0.18
8.594444444444445,-0.165,-0.22
8.597222222222221,-0.195,-0.24
8.6,-0.2,-0.275
8.602777777777778,-0.18,-0.29
8.605555555555556,-0.16,-0.32
8.608333333333333,-0.17,-0.375
8.61111111111111,-0.135,-0.425
8.613888888888889,-0.055,-0.455
8.616666666666667,0.075,-0.435
8.619444444444444,0.2,-0.415
8.622222222222222,0.3,-0.395
8.625,0.34,-0.41
8.627777777777778,0.35,-0.41
8.630555555555556,0.375,-0.355
8.633333333333333,0.46,-0.215
8.636111111111111,0.59,0.035
8.63888888888889,0.715,0.355
8.641666666666667,0.75,0.605
8.644444444444444,0.725,0.725
8.647222222222222,0.66,0.795
8.65,0.61,0.86
8.652777777777779,0.565,0.93
8.655555555555555,0.48,0.965
8.658333333333333,0.33,0.955
8.661111111111111,0.145,0.915
8.66388888888889,-0.05,0.86
8.666666666666666,-0.175,0.79
8.669444444444444,-0.22,0.71
8.672222222222222,-0.24,0.62
8.675,-0.265,0.56
8.677777777777777,-0.305,0.56
8.680555555555555,-0.335,0.565
8.683333333333334,-0.365,0.58
8.686111111111112,-0.38,0.59
8.688888888888888,-0.38,0.625
8.691666666666666,-0.37,0.645
8.694444444444445,-0.34,0.675
8.697222222222223,-0.31,0.715
8.7,-0.26,0.75
8.702777777777778,-0.195,0.76
8.705555555555556,-0.155,0.735
8.708333333333334,-0.135,0.66
8.71111111111111,-0.155,0.585
8.713888888888889,-0.185,0.48
8.716666666666667,-0.2,0.39
8.719444444444445,-0.225,0.245
8.722222222222221,-0.235,0.105
8.725,-0.245,-0.01
8.727777777777778,-0.255,-0.08
8.730555555555556,-0.245,-0.105
8.733333333333333,-0.235,-0.12
8.73611111111111,-0.225,-0.125
8.738888888888889,-0.225,-0.175
8.741666666666667,-0.245,-0.19
8.744444444444444,-0.26,-0.215
8.747222222222222,-0.26,-0.2
8.75,-0.25,-0.185
8.752777777777778,-0.245,-0.185
8.755555555555556,-0.235,-0.205
8.758333333333333,-0.25,-0.235
8.761111111111111,-0.265,-0.255
8.76388888888889,-0.265,-0.23
8.766666666666667,-0.26,-0.2
8.769444444444444,-0.235,-0.21
8.772222222222222,-0.24,-0.22
8.775,-0.255,-0.24
8.777777777777779,-0.245,-0.265
8.780555555555555,-0.245,-0.25
8.783333333333333,-0.225,-0.21
8.786111111111111,-0.215,-0.21
8.78888888888889,-0.22,-0.225
8.791666666666666,-0.225,-0.25
8.794444444444444,-0.235,-0.255
8.797222222222222,-0.25,-0.25
8.8,-0.25,-0.225
8.802777777777777,-0.235,-0.21
8.805555555555555,-0.22,-0.235
8.808333333333334,-0.23,-0.265
8.811111111111112,-0.245,-0.265
8.813888888888888,-0.24,-0.245
8.816666666666666,-0.225,-0.22
8.819444444444445,-0.205,-0.22
8.822222222222223,-0.215,-0.23
8.825,-0.225,-0.25
8.827777777777778,-0.22,-0.255
8.830555555555556,-0.215,-0.245
8.833333333333334,-0.2,-0.215
8.83611111111111,-0.195,-0.225
8.838888888888889,-0.18,-0.23
8.841666666666667,-0.18,-0.245
8.844444444444445,-0.185,-0.245
8.847222222222221,-0.18,-0.225
8.85,-0.175,-0.2
8.852777777777778,-0.16,-0.2
8.855555555555556,-0.16,-0.205
8.858333333333333,-0.17,-0.225
8.86111111111111,-0.185,-0.24
8.863888888888889,-0.175,-0.22
8.866666666666667,-0.16,-0.19
8.869444444444444,-0.145,-0.185
8.872222222222222,-0.145,-0.2
8.875,-0.155,-0.2
8.877777777777778,-0.155,-0.21
8.880555555555556,-0.16,-0.205
8.883333333333333,-0.135,-0.16
8.886111111111111,-0.115,-0.16
8.88888888888889,-0.115,-0.165
8.891666666666667,-0.13,-0.18
8.894444444444444,-0.13,-0.195
8.897222222222222,-0.135,-0.175
8.9,-0.12,-0.135
8.902777777777779,-0.09,-0.125
8.905555555555555,-0.085,-0.135
8.908333333333333,-0.105,-0.145
8.911111111111111,-0.095,-0.155
8.91388888888889,-0.1,-0.145
8.916666666666666,-0.07,-0.12
8.919444444444444,-0.06,-0.1
8.922222222222222,-0.07,-0.09
8.925,-0.07,-0.12
8.927777777777777,-0.085,-0.115
8.930555555555555,-0.085,-0.1
8.933333333333334,-0.055,-0.07
8.936111111111112,-0.035,-0.06
8.938888888888888,-0.04,-0.065
8.941666666666666,-0.045,-0.075
8.944444444444445,-0.05,-0.08
8.947222222222223,-0.04,-0.07
8.95,-0.03,-0.04
8.952777777777778,-0.01,-0.025
8.955555555555556,-0.01,-0.03
8.958333333333334,0.0,-0.05
8.96111111111111,-0.01,-0.055
8.963888888888889,-0.02,-0.04
8.966666666666667,-0.005,-0.015
8.969444444444445,0.02,0.005
8.972222222222221,0.02,0.01
8.975,0.005,-0.01
8.977777777777778,0.005,-0.02
8.980555555555556,0.0,-0.005
8.983333333333333,0.01,0.01
8.98611111111111,0.035,0.035
8.988888888888889,0.04,0.04
8.991666666666667,0.035,0.01
8.994444444444444,0.035,0.01
8.997222222222222,0.03,0.015
9.0,0.05,0.04
9.002777777777778,0.055,0.06
9.005555555555556,0.065,0.05
9.008333333333333,0.06,0.045
9.011111111111111,0.05,0.025
9.01388888888889,0.065,0.04
9.016666666666667,0.075,0.07
9.019444444444444,0.1,0.09
9.022222222222224,0.075,0.08
9.025,0.085,0.055
9.027777777777779,0.085,0.045
9.030555555555557,0.08,0.06
9.033333333333333,0.09,0.095
9.036111111111111,0.1,0.105
9.03888888888889,0.095,0.11
9.041666666666666,0.08,0.1
9.044444444444444,0.075,0.085
9.047222222222224,0.07,0.09
9.05,0.09,0.12
9.052777777777775,0.105,0.13
9.055555555555557,0.095,0.14
9.058333333333334,0.075,0.115
9.061111111111112,0.08,0.115
9.063888888888888,0.07,0.125
9.066666666666666,0.09,0.165
9.069444444444443,0.11,0.18
9.072222222222225,0.1,0.165
9.075,0.09,0.135
9.077777777777776,0.08,0.15
9.080555555555556,0.075,0.17
9.083333333333334,0.08,0.185
9.08611111111111,0.09,0.225
9.088888888888889,0.075,0.195
9.091666666666667,0.06,0.185
9.094444444444443,0.05,0.195
9.097222222222221,0.05,0.215
9.1,0.055,0.245
9.102777777777776,0.06,0.265
9.105555555555556,0.07,0.245
9.108333333333333,0.06,0.245
9.11111111111111,0.05,0.23
9.113888888888889,0.055,0.25
9.116666666666667,0.06,0.29
9.119444444444444,0.06,0.3
9.122222222222224,0.075,0.295
9.125,0.06,0.275
9.127777777777776,0.06,0.26
9.130555555555556,0.055,0.28
9.133333333333333,0.06,0.31
9.136111111111111,0.09,0.315
9.13888888888889,0.09,0.31
9.141666666666667,0.07,0.285
9.144444444444444,0.035,0.285
9.147222222222224,0.055,0.31
9.15,0.07,0.32
9.152777777777779,0.085,0.33
9.155555555555557,0.09,0.315
9.158333333333333,0.075,0.29
9.161111111111111,0.06,0.29
9.16388888888889,0.075,0.3
9.166666666666666,0.085,0.33
9.169444444444444,0.105,0.345
9.172222222222224,0.105,0.315
9.175,0.1,0.295
9.177777777777775,0.09,0.285
9.180555555555557,0.1,0.285
9.183333333333334,0.105,0.32
9.186111111111112,0.13,0.33
9.188888888888888,0.13,0.31
9.191666666666666,0.13,0.29
9.194444444444443,0.12,0.275
9.197222222222225,0.12,0.295
9.2,0.145,0.325
9.202777777777776,0.155,0.325
9.205555555555556,0.16,0.305
9.208333333333334,0.145,0.28
9.21111111111111,0.15,0.295
9.213888888888889,0.155,0.31
9.216666666666667,0.17,0.33
9.219444444444443,0.19,0.32
9.222222222222221,0.195,0.3
9.225,0.195,0.28
9.227777777777776,0.185,0.295
9.230555555555556,0.19,0.315
9.233333333333333,0.22,0.335
9.23611111111111,0.225,0.32
9.238888888888889,0.245,0.3
9.241666666666667,0.215,0.265
9.244444444444444,0.205,0.255
9.247222222222224,0.2,0.26
9.25,0.19,0.265
9.252777777777776,0.185,0.25
9.255555555555556,0.175,0.21
9.258333333333333,0.15,0.16
9.261111111111111,0.145,0.14
9.26388888888889,0.135,0.13
9.266666666666667,0.155,0.105
9.269444444444444,0.16,0.085
9.272222222222224,0.15,0.055
9.275,0.13,0.055
9.277777777777779,0.085,0.07
9.280555555555557,0.05,0.09
9.283333333333333,0.02,0.1
9.286111111111111,0.005,0.065
9.28888888888889,-0.04,0.04
9.291666666666666,-0.08,0.01
9.294444444444444,-0.115,0.005
9.297222222222224,-0.15,0.015
9.3,-0.21,0.04
9.302777777777775,-0.31,0.065
9.305555555555557,-0.435,0.085
9.308333333333334,-0.555,0.085
9.311111111111112,-0.625,0.135
9.313888888888888,-0.675,0.17
9.316666666666666,-0.76,0.155
9.319444444444443,-0.88,0.09
9.322222222222225,-0.975,0.015
9.325,-1.03,-0.05
9.327777777777776,-1.05,-0.07
9.330555555555556,-1.04,-0.05
9.333333333333334,-1.025,-0.025
9.33611111111111,-0.995,-0.01
9.338888888888889,-0.94,-0.02
9.341666666666667,-0.87,-0.005
9.344444444444443,-0.795,0.04
9.347222222222221,-0.75,0.11
9.35,-0.73,0.135
9.352777777777776,-0.72,0.115
9.355555555555556,-0.72,0.06
9.358333333333333,-0.725,0.02
9.36111111111111,-0.745,-0.005
9.363888888888889,-0.765,-0.025
9.366666666666667,-0.795,-0.09
9.369444444444444,-0.805,-0.2
9.372222222222224,-0.83,-0.315
9.375,-0.855,-0.455
9.377777777777776,-0.86,-0.58
9.380555555555556,-0.865,-0.695
9.383333333333333,-0.87,-0.8
9.386111111111111,-0.855,-0.915
9.38888888888889,-0.85,-1.01
9.391666666666667,-0.865,-1.09
9.394444444444444,-0.875,-1.1
9.397222222222224,-0.87,-1.105
9.4,-0.865,-1.095
9.402777777777779,-0.855,-1.12
9.405555555555557,-0.855,-1.155
9.408333333333333,-0.865,-1.17
9.411111111111111,-0.865,-1.155
9.41388888888889,-0.875,-1.15
9.416666666666666,-0.86,-1.15
9.419444444444444,-0.85,-1.165
9.422222222222224,-0.85,-1.195
9.425,-0.875,-1.2
9.427777777777775,-0.89,-1.21
9.430555555555557,-0.885,-1.175
9.433333333333334,-0.875,-1.185
9.436111111111112,-0.85,-1.215
9.438888888888888,-0.845,-1.22
9.441666666666666,-0.88,-1.235
9.444444444444443,-0.875,-1.215
9.447222222222225,-0.86,-1.195
9.45,-0.85,-1.195
9.452777777777776,-0.84,-1.21
9.455555555555556,-0.82,-1.235
9.458333333333334,-0.83,-1.23
9.46111111111111,-0.83,-1.21
9.463888888888889,-0.82,-1.19
9.466666666666667,-0.805,-1.195
9.469444444444443,-0.8,-1.215
9.472222222222221,-0.8,-1.22
9.475,-0.795,-1.225
9.477777777777776,-0.805,-1.205
9.480555555555556,-0.81,-1.19
9.483333333333333,-0.805,-1.185
9.48611111111111,-0.785,-1.19
9.488888888888889,-0.77,-1.2
9.491666666666667,-0.78,-1.2
9.494444444444444,-0.79,-1.17
9.497222222222224,-0.775,-1.14
9.5,-0.755,-1.15
9.502777777777776,-0.725,-1.135
9.505555555555556,-0.715,-1.145
9.508333333333333,-0.735,-1.14
9.511111111111111,-0.73,-1.125
9.51388888888889,-0.715,-1.095
9.516666666666667,-0.7,-1.1
9.519444444444444,-0.68,-1.09
9.522222222222224,-0.665,-1.085
9.525,-0.66,-1.07
9.527777777777779,-0.67,-1.045
9.530555555555557,-0.665,-1.04
9.533333333333333,-0.645,-1.035
9.536111111111111,-0.62,-1.025
9.53888888888889,-0.62,-0.995
9.541666666666666,-0.615,-1.0
9.544444444444444,-0.62,-0.975
9.547222222222224,-0.605,-0.96
9.55,-0.6,-0.97
9.552777777777775,-0.57,-0.945
9.555555555555557,-0.575,-0.93
9.558333333333334,-0.565,-0.91
9.561111111111112,-0.565,-0.9
9.563888888888888,-0.555,-0.895
9.566666666666666,-0.54,-0.88
9.569444444444443,-0.52,-0.86
9.572222222222225,-0.51,-0.84
9.575,-0.5,-0.835
9.577777777777776,-0.5,-0.81
9.580555555555556,-0.485,-0.8
9.583333333333334,-0.475,-0.79
9.58611111111111,-0.455,-0.78
9.588888888888889,-0.455,-0.76
9.591666666666667,-0.45,-0.755
9.594444444444443,-0.46,-0.74
9.597222222222221,-0.46,-0.73
9.6,-0.435,-0.72
9.602777777777776,-0.415,-0.695
9.605555555555556,-0.41,-0.69
9.608333333333333,-0.405,-0.675
9.61111111111111,-0.4,-0.67
9.613888888888889,-0.39,-0.66
9.616666666666667,-0.37,-0.64
9.619444444444444,-0.35,-0.625
9.622222222222224,-0.34,-0.595
9.625,-0.34,-0.595
9.627777777777776,-0.33,-0.58
9.630555555555556,-0.32,-0.575
9.633333333333333,-0.295,-0.555
9.636111111111111,-0.27,-0.535
9.63888888888889,-0.26,-0.515
9.641666666666667,-0.275,-0.515
9.644444444444444,-0.28,-0.535
9.647222222222224,-0.27,-0.525
9.65,-0.26,-0.495
9.652777777777779,-0.245,-0.46
9.655555555555557,-0.225,-0.46
9.658333333333333,-0.225,-0.46
9.661111111111111,-0.225,-0.48
9.66388888888889,-0.215,-0.465
9.666666666666666,-0.205,-0.435
9.669444444444444,-0.18,-0.43
9.672222222222224,-0.185,-0.43
9.675,-0.195,-0.435
9.677777777777775,-0.2,-0.46
9.680555555555557,-0.185,-0.445
9.683333333333334,-0.175,-0.405
9.686111111111112,-0.15,-0.385
9.688888888888888,-0.16,-0.385
9.691666666666666,-0.155,-0.405
9.694444444444443,-0.165,-0.395
9.697222222222225,-0.165,-0.38
9.7,-0.15,-0.34
9.702777777777776,-0.14,-0.33
9.705555555555556,-0.13,-0.335
9.708333333333334,-0.15,-0.36
9.71111111111111,-0.16,-0.355
9.713888888888889,-0.175,-0.33
9.716666666666667,-0.165,-0.29
9.719444444444443,-0.145,-0.28
9.722222222222221,-0.15,-0.28
9.725,-0.165,-0.305
9.727777777777776,-0.17,-0.275
9.730555555555556,-0.15,-0.24
9.733333333333333,-0.145,-0.195
9.73611111111111,-0.115,-0.195
9.738888888888889,-0.115,-0.205
9.741666666666667,-0.14,-0.215
9.744444444444444,-0.15,-0.21
9.747222222222224,-0.14,-0.165
9.75,-0.135,-0.15
9.752777777777776,-0.13,-0.145
9.755555555555556,-0.135,-0.15
9.758333333333333,-0.16,-0.175
9.761111111111111,-0.16,-0.165
9.76388888888889,-0.155,-0.12
9.766666666666667,-0.13,-0.105
9.769444444444444,-0.135,-0.1
9.772222222222224,-0.14,-0.125
9.775,-0.14,-0.14
9.777777777777779,-0.145,-0.13
9.780555555555557,-0.15,-0.1
9.783333333333333,-0.135,-0.08
9.786111111111111,-0.12,-0.09
9.78888888888889,-0.125,-0.11
9.791666666666666,-0.135,-0.12
9.794444444444444,-0.135,-0.11
9.797222222222224,-0.13,-0.085
9.8,-0.12,-0.075
9.802777777777775,-0.11,-0.09
9.805555555555557,-0.11,-0.11
9.808333333333334,-0.12,-0.115
9.811111111111112,-0.14,-0.105
9.813888888888888,-0.145,-0.075
9.816666666666666,-0.14,-0.07
9.819444444444443,-0.135,-0.075
9.822222222222225,-0.12,-0.095
9.825,-0.14,-0.105
9.827777777777776,-0.155,-0.085
9.830555555555556,-0.145,-0.07
9.833333333333334,-0.145,-0.065
9.83611111111111,-0.105,-0.075
9.838888888888889,-0.115,-0.09
9.841666666666667,-0.13,-0.09
9.844444444444443,-0.135,-0.075
9.847222222222221,-0.13,-0.065
9.85,-0.11,-0.055
9.852777777777776,-0.105,-0.065
9.855555555555556,-0.11,-0.08
9.858333333333333,-0.12,-0.08
9.86111111111111,-0.13,-0.08
9.863888888888889,-0.125,-0.06
9.866666666666667,-0.13,-0.07
9.869444444444444,-0.12,-0.08
9.872222222222224,-0.13,-0.085
9.875,-0.125,-0.08
9.877777777777776,-0.14,-0.07
9.880555555555556,-0.13,-0.065
9.883333333333333,-0.14,-0.065
9.886111111111111,-0.115,-0.085
9.88888888888889,-0.11,-0.07
9.891666666666667,-0.125,-0.065
9.894444444444444,-0.145,-0.05
9.897222222222224,-0.13,-0.065
9.9,-0.115,-0.065
9.902777777777779,-0.1,-0.07
9.905555555555557,-0.1,-0.065
9.908333333333333,-0.11,-0.065
9.911111111111111,-0.115,-0.07
9.91388888888889,-0.12,-0.05
9.916666666666666,-0.11,-0.05
9.919444444444444,-0.1,-0.06
9.922222222222224,-0.12,-0.07
9.925,-0.12,-0.065
9.927777777777775,-0.13,-0.055
9.930555555555557,-0.125,-0.065
9.933333333333334,-0.11,-0.07
9.936111111111112,-0.1,-0.06
9.938888888888888,-0.095,-0.06
9.941666666666666,-0.11,-0.06
9.944444444444443,-0.135,-0.055
9.947222222222225,-0.13,-0.06
9.95,-0.115,-0.06
9.952777777777776,-0.11,-0.06
9.955555555555556,-0.1,-0.055
9.958333333333334,-0.11,-0.05
9.96111111111111,-0.11,-0.055
9.963888888888889,-0.105,-0.075
9.966666666666667,-0.1,-0.06
9.969444444444443,-0.08,-0.055
9.972222222222221,-0.085,-0.035
9.975,-0.105,-0.05
9.977777777777776,-0.12,-0.055
9.980555555555556,-0.135,-0.05
9.983333333333333,-0.105,-0.055
9.98611111111111,-0.1,-0.055
9.988888888888889,-0.115,-0.05
9.991666666666667,-0.1,-0.045
9.994444444444444,-0.125,-0.05
9.997222222222224,-0.12,-0.055
10.0,-0.105,-0.065
10.002777777777776,-0.095,-0.055
10.005555555555556,-0.095,-0.05
10.008333333333333,-0.105,-0.04
10.011111111111111,-0.11,-0.06
10.01388888888889,-0.1,-0.065
10.016666666666667,-0.09,-0.055
10.019444444444444,-0.075,-0.055
10.022222222222224,-0.08,-0.04
10.025,-0.095,-0.05
10.027777777777779,-0.105,-0.065
10.030555555555557,-0.105,-0.065
10.033333333333333,-0.095,-0.06
10.036111111111111,-0.085,-0.05
10.03888888888889,-0.095,-0.04
10.041666666666666,-0.1,-0.05
10.044444444444444,-0.12,-0.075
10.047222222222224,-0.115,-0.075
10.05,-0.095,-0.06
10.052777777777775,-0.095,-0.045
10.055555555555557,-0.105,-0.03
10.058333333333334,-0.11,-0.055
10.061111111111112,-0.125,-0.07
10.063888888888888,-0.115,-0.07
10.066666666666666,-0.095,-0.055
10.069444444444443,-0.075,-0.04
10.072222222222225,-0.075,-0.035
10.075,-0.1,-0.05
10.077777777777776,-0.095,-0.075
10.080555555555556,-0.095,-0.08
10.083333333333334,-0.085,-0.065
10.08611111111111,-0.075,-0.05
10.088888888888889,-0.09,-0.045
10.091666666666667,-0.105,-0.065
10.094444444444443,-0.11,-0.07
10.097222222222221,-0.11,-0.08
10.1,-0.095,-0.055
10.102777777777776,-0.085,-0.055
10.105555555555556,-0.09,-0.05
10.108333333333333,-0.105,-0.06
10.11111111111111,-0.115,-0.08
10.113888888888889,-0.11,-0.07
10.116666666666667,-0.085,-0.07
10.119444444444444,-0.1,-0.055
10.122222222222224,-0.095,-0.045
10.125,-0.085,-0.055
10.127777777777776,-0.095,-0.075
10.130555555555556,-0.09,-0.075
10.133333333333333,-0.075,-0.065
10.136111111111111,-0.07,-0.05
10.13888888888889,-0.075,-0.045
10.141666666666667,-0.095,-0.065
10.144444444444444,-0.1,-0.08
10.147222222222224,-0.095,-0.075
10.15,-0.095,-0.055
10.152777777777779,-0.09,-0.045
10.155555555555557,-0.09,-0.045
10.158333333333333,-0.1,-0.075
10.161111111111111,-0.11,-0.09
10.16388888888889,-0.105,-0.08
10.166666666666666,-0.1,-0.06
10.169444444444444,-0.08,-0.05
10.172222222222224,-0.09,-0.045
10.175,-0.085,-0.075
10.177777777777775,-0.1,-0.1
10.180555555555557,-0.095,-0.08
10.183333333333334,-0.08,-0.06
10.186111111111112,-0.075,-0.04
10.188888888888888,-0.08,-0.05
10.191666666666666,-0.085,-0.095
10.194444444444443,-0.1,-0.09
10.197222222222225,-0.09,-0.085
10.2,-0.09,-0.065
10.202777777777776,-0.08,-0.055
10.205555555555556,-0.085,-0.06
10.208333333333334,-0.1,-0.08
10.21111111111111,-0.105,-0.1
10.213888888888889,-0.11,-0.08
10.216666666666667,-0.095,-0.07
10.219444444444443,-0.09,-0.05
10.222222222222221,-0.095,-0.06
10.225,-0.11,-0.09
10.227777777777776,-0.115,-0.1
10.230555555555556,-0.12,-0.09
10.233333333333333,-0.11,-0.06
10.23611111111111,-0.09,-0.05
10.238888888888889,-0.08,-0.06
10.241666666666667,-0.095,-0.09
10.244444444444444,-0.105,-0.1
10.247222222222224,-0.105,-0.085
10.25,-0.095,-0.07
10.252777777777776,-0.09,-0.05
10.255555555555556,-0.1,-0.07
10.258333333333333,-0.105,-0.105
10.261111111111111,-0.12,-0.105
10.26388888888889,-0.125,-0.085
10.266666666666667,-0.1,-0.05
10.269444444444444,-0.095,-0.055
10.272222222222224,-0.12,-0.075
10.275,-0.11,-0.1
10.277777777777779,-0.12,-0.11
10.280555555555557,-0.115,-0.075
10.283333333333333,-0.11,-0.055
10.286111111111111,-0.095,-0.055
10.28888888888889,-0.1,-0.075
10.291666666666666,-0.11,-0.1
10.294444444444444,-0.11,-0.105
10.297222222222224,-0.11,-0.07
10.3,-0.095,-0.06
10.302777777777775,-0.085,-0.05
10.305555555555557,-0.095,-0.075
10.308333333333334,-0.105,-0.1
10.311111111111112,-0.11,-0.105
10.313888888888888,-0.12,-0.08
10.316666666666666,-0.11,-0.05
10.319444444444443,-0.09,-0.065
10.322222222222225,-0.09,-0.075
10.325,-0.11,-0.1
10.327777777777776,-0.115,-0.105
10.330555555555556,-0.105,-0.065
10.333333333333334,-0.115,-0.05
10.33611111111111,-0.095,-0.06
10.338888888888889,-0.1,-0.095
10.341666666666667,-0.115,-0.1
10.344444444444443,-0.115,-0.09
10.347222222222221,-0.11,-0.07
10.35,-0.09,-0.065
10.352777777777776,-0.09,-0.065
10.355555555555556,-0.09,-0.085
10.358333333333333,-0.105,-0.095
10.36111111111111,-0.11,-0.085
10.363888888888889,-0.115,-0.055
10.366666666666667,-0.095,-0.05
10.369444444444444,-0.1,-0.07
10.372222222222224,-0.1,-0.105
10.375,-0.11,-0.09
10.377777777777776,-0.11,-0.075
10.380555555555556,-0.115,-0.075
10.383333333333333,-0.115,-0.06
10.386111111111111,-0.105,-0.07
10.38888888888889,-0.095,-0.085
10.391666666666667,-0.105,-0.095
10.394444444444444,-0.105,-0.075
10.397222222222224,-0.105,-0.065
10.4,-0.095,-0.065
10.402777777777779,-0.085,-0.075
10.405555555555557,-0.085,-0.095
10.408333333333333,-0.1,-0.085
10.411111111111111,-0.11,-0.085
10.41388888888889,-0.105,-0.07
10.416666666666666,-0.105,-0.065
10.419444444444444,-0.1,-0.08
10.422222222222224,-0.095,-0.085
10.425,-0.125,-0.08
10.427777777777775,-0.13,-0.085
10.430555555555557,-0.12,-0.07
10.433333333333334,-0.125,-0.08
10.436111111111112,-0.11,-0.075
10.438888888888888,-0.105,-0.08
10.441666666666666,-0.115,-0.075
10.444444444444443,-0.125,-0.085
10.447222222222225,-0.115,-0.09
10.45,-0.115,-0.08
10.452777777777776,-0.095,-0.075
10.455555555555556,-0.095,-0.075
10.458333333333334,-0.105,-0.07
10.46111111111111,-0.125,-0.08
10.463888888888889,-0.11,-0.085
10.466666666666667,-0.11,-0.08
10.469444444444443,-0.1,-0.06
10.472222222222221,-0.11,-0.065
10.475,-0.12,-0.07
10.477777777777776,-0.125,-0.085
10.480555555555556,-0.135,-0.09
10.483333333333333,-0.12,-0.075
10.48611111111111,-0.09,-0.06
10.488888888888889,-0.105,-0.06
10.491666666666667,-0.115,-0.08
10.494444444444444,-0.125,-0.085
10.497222222222224,-0.12,-0.085
10.5,-0.1,-0.07
10.502777777777776,-0.1,-0.045
10.505555555555556,-0.1,-0.065
10.508333333333333,-0.11,-0.075
10.511111111111111,-0.115,-0.095
10.51388888888889,-0.115,-0.075
10.516666666666667,-0.095,-0.065
10.519444444444444,-0.09,-0.05
10.522222222222224,-0.105,-0.06
10.525,-0.125,-0.07
10.527777777777779,-0.13,-0.095
10.530555555555557,-0.125,-0.08
10.533333333333333,-0.095,-0.055
10.536111111111111,-0.1,-0.05
10.53888888888889,-0.105,-0.05
10.541666666666666,-0.12,-0.085
10.544444444444444,-0.12,-0.09
10.547222222222224,-0.11,-0.06
10.55,-0.1,-0.045
10.552777777777775,-0.105,-0.05
10.555555555555557,-0.115,-0.06
10.558333333333334,-0.11,-0.095
10.561111111111112,-0.11,-0.08
10.563888888888888,-0.105,-0.065
10.566666666666666,-0.085,-0.035
10.569444444444443,-0.08,-0.06
10.572222222222225,-0.095,-0.07
10.575,-0.11,-0.09
10.577777777777776,-0.115,-0.065
10.580555555555556,-0.105,-0.04
10.583333333333334,-0.105,-0.04
10.58611111111111,-0.1,-0.045
10.588888888888889,-0.105,-0.07
10.591666666666667,-0.11,-0.08
10.594444444444443,-0.125,-0.08
10.597222222222221,-0.115,-0.045
10.6,-0.1,-0.045
10.602777777777776,-0.095,-0.05
10.605555555555556,-0.1,-0.075
10.608333333333333,-0.11,-0.08
10.61111111111111,-0.13,-0.065
10.613888888888889,-0.11,-0.05
10.616666666666667,-0.1,-0.045
10.619444444444444,-0.08,-0.065
10.622222222222224,-0.09,-0.065
10.625,-0.1,-0.075
10.627777777777776,-0.11,-0.055
10.630555555555556,-0.115,-0.04
10.633333333333333,-0.1,-0.05
10.636111111111111,-0.095,-0.065
10.63888888888889,-0.1,-0.065
10.641666666666667,-0.1,-0.06
10.644444444444444,-0.115,-0.065
10.647222222222224,-0.12,-0.055
10.65,-0.11,-0.055
10.652777777777779,-0.09,-0.055
10.655555555555557,-0.1,-0.055
10.658333333333333,-0.115,-0.045
10.661111111111111,-0.12,-0.055
10.66388888888889,-0.105,-0.065
10.666666666666666,-0.095,-0.06
10.669444444444444,-0.095,-0.07
10.672222222222224,-0.125,-0.1
10.675,-0.15,-0.13
10.677777777777775,-0.16,-0.17
10.680555555555557,-0.15,-0.2
10.683333333333334,-0.14,-0.235
10.686111111111112,-0.105,-0.25
10.688888888888888,-0.05,-0.255
10.691666666666666,0.05,-0.275
10.694444444444443,0.17,-0.285
10.697222222222225,0.285,-0.255
10.7,0.365,-0.24
10.702777777777776,0.39,-0.22
10.705555555555556,0.425,-0.17
10.708333333333334,0.52,-0.04
10.71111111111111,0.66,0.245
10.713888888888889,0.765,0.645
10.716666666666667,0.785,0.895
10.719444444444443,0.75,0.985
10.722222222222221,0.66,0.99
10.725,0.585,1.025
10.727777777777776,0.46,1.07
10.730555555555556,0.3,1.11
10.733333333333333,0.09,1.05
10.73611111111111,-0.08,0.905
10.738888888888889,-0.155,0.755
10.741666666666667,-0.2,0.675
10.744444444444444,-0.225,0.67
10.747222222222224,-0.27,0.65
10.75,-0.31,0.675
10.752777777777776,-0.29,0.71
10.755555555555556,-0.23,0.79
10.758333333333333,-0.2,0.82
10.761111111111111,-0.155,0.825
10.76388888888889,-0.095,0.83
10.766666666666667,-0.055,0.83
10.769444444444444,-0.045,0.785
10.772222222222224,-0.075,0.66
10.775,-0.13,0.51
10.777777777777779,-0.175,0.345
10.780555555555557,-0.195,0.23
10.783333333333333,-0.195,0.16
10.786111111111111,-0.18,0.095
10.78888888888889,-0.17,0.035
10.791666666666666,-0.19,-0.015
10.794444444444444,-0.19,-0.04
10.797222222222224,-0.195,-0.045
10.8,-0.175,-0.025
10.802777777777775,-0.165,-0.035
10.805555555555557,-0.175,-0.06
10.808333333333334,-0.175,-0.095
10.811111111111112,-0.185,-0.095
10.813888888888888,-0.17,-0.075
10.816666666666666,-0.17,-0.05
10.819444444444443,-0.16,-0.07
10.822222222222225,-0.165,-0.08
10.825,-0.18,-0.105
10.827777777777776,-0.175,-0.1
10.830555555555556,-0.175,-0.07
10.833333333333334,-0.185,-0.05
10.83611111111111,-0.16,-0.07
10.838888888888889,-0.17,-0.095
10.841666666666667,-0.17,-0.11
10.844444444444443,-0.18,-0.095
10.847222222222221,-0.18,-0.085
10.85,-0.17,-0.07
10.852777777777776,-0.16,-0.095
10.855555555555556,-0.16,-0.1
10.858333333333333,-0.17,-0.11
10.86111111111111,-0.18,-0.095
10.863888888888889,-0.165,-0.08
10.866666666666667,-0.15,-0.07
10.869444444444444,-0.145,-0.09
10.872222222222224,-0.145,-0.095
10.875,-0.15,-0.095
10.877777777777776,-0.16,-0.08
10.880555555555556,-0.165,-0.075
10.883333333333333,-0.15,-0.08
10.886111111111111,-0.145,-0.085
10.88888888888889,-0.145,-0.09
10.891666666666667,-0.145,-0.08
10.894444444444444,-0.15,-0.07
10.897222222222224,-0.15,-0.06
10.9,-0.12,-0.06
10.902777777777779,-0.12,-0.07
10.905555555555557,-0.12,-0.07
10.908333333333333,-0.13,-0.065
10.911111111111111,-0.135,-0.065
10.91388888888889,-0.12,-0.05
10.916666666666666,-0.1,-0.06
10.919444444444444,-0.085,-0.06
10.922222222222224,-0.085,-0.04
10.925,-0.09,-0.04
10.927777777777775,-0.09,-0.045
10.930555555555557,-0.08,-0.02
10.933333333333334,-0.085,-0.03
10.936111111111112,-0.06,-0.015
10.938888888888888,-0.07,-0.005
10.941666666666666,-0.09,0.0
10.944444444444443,-0.09,-0.015
10.947222222222225,-0.08,-0.005
10.95,-0.06,0.015
10.952777777777776,-0.05,0.015
10.955555555555556,-0.045,0.025
10.958333333333334,-0.055,0.025
10.96111111111111,-0.055,0.02
10.963888888888889,-0.05,0.025
10.966666666666667,-0.025,0.05
10.969444444444443,-0.025,0.06
10.972222222222221,-0.02,0.065
10.975,-0.005,0.065
10.977777777777776,-0.025,0.065
10.980555555555556,-0.02,0.06
10.983333333333333,0.005,0.075
10.98611111111111,0.02,0.11
10.988888888888889,0.02,0.105
10.991666666666667,-0.005,0.105
10.994444444444444,-0.015,0.09
10.997222222222224,0.005,0.095
11.0,0.015,0.12
11.002777777777776,0.03,0.125
11.005555555555556,0.025,0.14
11.008333333333333,0.015,0.125
11.011111111111111,0.01,0.125
11.01388888888889,0.025,0.125
11.016666666666667,0.04,0.155
11.019444444444444,0.045,0.16
11.022222222222224,0.06,0.165
11.025,0.06,0.155
11.027777777777779,0.045,0.14
11.030555555555557,0.06,0.16
11.033333333333333,0.065,0.175
11.036111111111111,0.08,0.2
11.03888888888889,0.08,0.185
11.041666666666666,0.07,0.17
11.044444444444444,0.06,0.165
11.047222222222224,0.065,0.18
11.05,0.08,0.21
11.052777777777775,0.085,0.23
11.055555555555557,0.095,0.21
11.058333333333334,0.075,0.19
11.061111111111112,0.07,0.195
11.063888888888888,0.09,0.22
11.066666666666666,0.085,0.245
11.069444444444443,0.105,0.25
11.072222222222225,0.1,0.235
11.075,0.09,0.215
11.077777777777776,0.095,0.21
11.080555555555556,0.095,0.24
11.083333333333334,0.1,0.265
11.08611111111111,0.12,0.265
11.088888888888889,0.115,0.245
11.091666666666667,0.1,0.24
11.094444444444443,0.105,0.24
11.097222222222221,0.1,0.265
11.1,0.105,0.3
11.102777777777776,0.115,0.305
11.105555555555556,0.105,0.28
11.108333333333333,0.09,0.26
11.11111111111111,0.085,0.275
11.113888888888889,0.09,0.29
11.116666666666667,0.105,0.325
11.119444444444444,0.105,0.325
11.122222222222224,0.11,0.315
11.125,0.09,0.29
11.127777777777776,0.08,0.3
11.130555555555556,0.085,0.33
11.133333333333333,0.095,0.37
11.136111111111111,0.1,0.36
11.13888888888889,0.11,0.355
11.141666666666667,0.1,0.335
11.144444444444444,0.09,0.36
11.147222222222224,0.085,0.38
11.15,0.085,0.415
11.152777777777779,0.1,0.395
11.155555555555557,0.085,0.38
11.158333333333333,0.075,0.37
11.161111111111111,0.07,0.375
11.16388888888889,0.07,0.415
11.166666666666666,0.09,0.43
11.169444444444444,0.09,0.42
11.172222222222224,0.08,0.39
11.175,0.065,0.395
11.177777777777775,0.075,0.4
11.180555555555557,0.08,0.42
11.183333333333334,0.095,0.435
11.186111111111112,0.105,0.42
11.188888888888888,0.105,0.395
11.191666666666666,0.1,0.4
11.194444444444443,0.1,0.42
11.197222222222225,0.11,0.43
11.2,0.12,0.445
11.202777777777776,0.125,0.43
11.205555555555556,0.115,0.42
11.208333333333334,0.11,0.4
11.21111111111111,0.11,0.41
11.213888888888889,0.105,0.44
11.216666666666667,0.12,0.455
11.219444444444443,0.135,0.435
11.222222222222221,0.14,0.41
11.225,0.135,0.415
11.227777777777776,0.12,0.415
11.230555555555556,0.13,0.445
11.233333333333333,0.155,0.465
11.23611111111111,0.165,0.44
11.238888888888889,0.165,0.43
11.241666666666667,0.17,0.425
11.244444444444444,0.165,0.435
11.247222222222224,0.17,0.45
11.25,0.205,0.47
11.252777777777776,0.205,0.46
11.255555555555556,0.2,0.435
11.258333333333333,0.19,0.435
11.261111111111111,0.195,0.46
11.26388888888889,0.22,0.465
11.266666666666667,0.24,0.475
11.269444444444444,0.24,0.475
11.272222222222224,0.235,0.445
11.275,0.245,0.435
11.277777777777779,0.235,0.45
11.280555555555557,0.24,0.45
11.283333333333333,0.22,0.445
11.286111111111111,0.21,0.415
11.28888888888889,0.185,0.38
11.291666666666666,0.16,0.365
11.294444444444444,0.155,0.365
11.297222222222224,0.16,0.375
11.3,0.14,0.35
11.302777777777775,0.155,0.315
11.305555555555557,0.135,0.27
11.308333333333334,0.115,0.275
11.311111111111112,0.105,0.275
11.313888888888888,0.1,0.285
11.316666666666666,0.095,0.28
11.319444444444443,0.065,0.255
11.322222222222225,0.035,0.235
11.325,0.015,0.23
11.327777777777776,0.0,0.245
11.330555555555556,-0.02,0.245
11.333333333333334,-0.035,0.25
11.33611111111111,-0.105,0.23
11.338888888888889,-0.225,0.215
11.341666666666667,-0.32,0.24
11.344444444444443,-0.385,0.305
11.347222222222221,-0.455,0.38
11.35,-0.545,0.41
11.352777777777776,-0.655,0.4
11.355555555555556,-0.77,0.315
11.358333333333333,-0.865,0.26
11.36111111111111,-0.925,0.205
11.363888888888889,-0.98,0.17
11.366666666666667,-0.995,0.14
11.369444444444444,-1.01,0.09
11.372222222222224,-0.99,0.06
11.375,-0.99,0.085
11.377777777777776,-0.95,0.12
11.380555555555556,-0.88,0.175
11.383333333333333,-0.815,0.215
11.386111111111111,-0.77,0.22
11.38888888888889,-0.755,0.21
11.391666666666667,-0.735,0.21
11.394444444444444,-0.735,0.22
11.397222222222224,-0.735,0.205
11.4,-0.74,0.185
11.402777777777779,-0.735,0.13
11.405555555555557,-0.76,0.06
11.408333333333333,-0.785,-0.02
11.411111111111111,-0.805,-0.09
11.41388888888889,-0.81,-0.19
11.416666666666666,-0.8,-0.32
