time,MLII,V1
0.0,-0.305,0.25
0.002777777777737356,-0.305,0.26
0.005555555555474712,-0.32,0.255
0.008333333333439441,-0.335,0.24
0.011111111111176797,-0.315,0.245
0.013888888888914153,-0.3,0.255
0.01666666666665151,-0.305,0.245
0.019444444444388864,-0.33,0.255
0.02222222222212622,-0.32,0.25
0.02500000000009095,-0.33,0.255
0.027777777777828305,-0.325,0.26
0.03055555555556566,-0.31,0.26
0.03333333333330302,-0.315,0.245
0.03611111111104037,-0.31,0.245
0.03888888888877773,-0.315,0.255
0.04166666666674246,-0.32,0.25
0.044444444444479814,-0.3,0.26
0.04722222222221717,-0.295,0.255
0.049999999999954525,-0.3,0.245
0.05277777777769188,-0.3,0.23
0.05555555555542924,-0.31,0.24
0.058333333333393966,-0.32,0.255
0.06111111111113132,-0.32,0.265
0.06388888888886868,-0.31,0.27
0.06666666666660603,-0.32,0.25
0.06944444444457076,-0.32,0.24
0.07222222222230812,-0.335,0.235
0.07500000000004547,-0.335,0.255
0.07777777777778283,-0.33,0.26
0.08055555555552019,-0.31,0.245
0.08333333333325754,-0.305,0.245
0.08611111111122227,-0.315,0.24
0.08888888888895963,-0.32,0.24
0.09166666666669698,-0.325,0.255
0.09444444444443434,-0.305,0.27
0.0972222222221717,-0.305,0.265
0.09999999999990905,-0.295,0.255
0.10277777777787378,-0.31,0.23
0.10555555555561114,-0.33,0.22
0.10833333333334849,-0.31,0.245
0.11111111111108585,-0.295,0.255
0.1138888888888232,-0.285,0.255
0.11666666666656056,-0.275,0.23
0.11944444444452529,-0.28,0.21
0.12222222222226264,-0.32,0.195
0.125,-0.315,0.205
0.12777777777773736,-0.305,0.2
0.1305555555554747,-0.3,0.22
0.13333333333343944,-0.31,0.21
0.1361111111111768,-0.33,0.18
0.13888888888891415,-0.345,0.165
0.1416666666666515,-0.345,0.18
0.14444444444438886,-0.33,0.2
0.14722222222212622,-0.325,0.22
0.15000000000009095,-0.32,0.21
0.1527777777778283,-0.33,0.18
0.15555555555556566,-0.315,0.185
0.15833333333330302,-0.325,0.195
0.16111111111104037,-0.3,0.215
0.16388888888877773,-0.305,0.22
0.16666666666674246,-0.32,0.21
0.1694444444444798,-0.325,0.195
0.17222222222221717,-0.35,0.185
0.17499999999995453,-0.33,0.19
0.17777777777769188,-0.32,0.21
0.18055555555542924,-0.3,0.215
0.18333333333339397,-0.31,0.215
0.18611111111113132,-0.315,0.205
0.18888888888886868,-0.32,0.185
0.19166666666660603,-0.33,0.2
0.19444444444457076,-0.33,0.22
0.19722222222230812,-0.31,0.225
0.20000000000004547,-0.315,0.22
0.20277777777778283,-0.315,0.205
0.2055555555555202,-0.31,0.195
0.20833333333325754,-0.31,0.2
0.21111111111122227,-0.305,0.205
0.21388888888895963,-0.31,0.22
0.21666666666669698,-0.315,0.215
0.21944444444443434,-0.335,0.195
0.2222222222221717,-0.34,0.19
0.22499999999990905,-0.35,0.2
0.22777777777787378,-0.33,0.22
0.23055555555561114,-0.3,0.23
0.2333333333333485,-0.305,0.215
0.23611111111108585,-0.32,0.19
0.2388888888888232,-0.33,0.185
0.24166666666656056,-0.34,0.195
0.2444444444445253,-0.31,0.205
0.24722222222226264,-0.31,0.215
0.25,-0.31,0.21
0.25277777777773736,-0.325,0.195
0.2555555555554747,-0.325,0.185
0.25833333333343944,-0.34,0.19
0.2611111111111768,-0.325,0.215
0.26388888888891415,-0.32,0.23
0.2666666666666515,-0.32,0.23
0.26944444444438886,-0.34,0.215
0.2722222222221262,-0.35,0.195
0.27500000000009095,-0.335,0.195
0.2777777777778283,-0.315,0.2
0.28055555555556566,-0.315,0.21
0.283333333333303,-0.315,0.21
0.2861111111110404,-0.3,0.19
0.28888888888877773,-0.295,0.18
0.29166666666674246,-0.3,0.175
0.2944444444444798,-0.29,0.195
0.29722222222221717,-0.27,0.21
0.2999999999999545,-0.265,0.215
0.3027777777776919,-0.275,0.195
0.30555555555542924,-0.285,0.19
0.30833333333339397,-0.29,0.18
0.3111111111111313,-0.305,0.2
0.3138888888888687,-0.32,0.195
0.31666666666660603,-0.325,0.195
0.31944444444457076,-0.355,0.175
0.3222222222223081,-0.39,0.15
0.3250000000000455,-0.42,0.145
0.32777777777778283,-0.41,0.12
0.3305555555555202,-0.43,0.115
0.33333333333325754,-0.445,0.085
0.33611111111122227,-0.48,0.04
0.3388888888889596,-0.52,0.005
0.341666666666697,-0.57,-0.03
0.34444444444443434,-0.615,-0.065
0.3472222222221717,-0.635,-0.135
0.34999999999990905,-0.665,-0.205
0.3527777777778738,-0.73,-0.25
0.35555555555561114,-0.84,-0.295
0.3583333333333485,-0.975,-0.305
0.36111111111108585,-1.155,-0.295
0.3638888888888232,-1.355,-0.275
0.36666666666656056,-1.46,-0.235
0.3694444444445253,-1.48,-0.225
0.37222222222226264,-1.44,-0.185
0.375,-1.405,-0.105
0.37777777777773736,-1.36,-0.035
0.3805555555554747,-1.28,0.04
0.38333333333343944,-1.2,0.11
0.3861111111111768,-1.14,0.16
0.38888888888891415,-1.06,0.225
0.3916666666666515,-0.99,0.31
0.39444444444438886,-0.895,0.38
0.3972222222221262,-0.825,0.45
0.40000000000009095,-0.76,0.48
0.4027777777778283,-0.72,0.495
0.40555555555556566,-0.665,0.495
0.408333333333303,-0.62,0.49
0.4111111111110404,-0.55,0.49
0.41388888888877773,-0.48,0.48
0.41666666666674246,-0.41,0.445
0.4194444444444798,-0.365,0.38
0.42222222222221717,-0.32,0.37
0.4249999999999545,-0.275,0.355
0.4277777777776919,-0.235,0.35
0.43055555555542924,-0.22,0.345
0.43333333333339397,-0.215,0.34
0.4361111111111313,-0.215,0.315
0.4388888888888687,-0.23,0.295
0.44166666666660603,-0.235,0.29
0.44444444444457076,-0.24,0.295
0.4472222222223081,-0.22,0.325
0.4500000000000455,-0.23,0.315
0.45277777777778283,-0.23,0.31
0.4555555555555202,-0.24,0.29
0.45833333333325754,-0.245,0.295
0.46111111111122227,-0.215,0.315
0.4638888888889596,-0.2,0.325
0.466666666666697,-0.175,0.33
0.46944444444443434,-0.18,0.305
0.4722222222221717,-0.185,0.305
0.47499999999990905,-0.19,0.29
0.4777777777778738,-0.18,0.31
0.48055555555561114,-0.16,0.31
0.4833333333333485,-0.16,0.315
0.48611111111108585,-0.165,0.285
0.4888888888888232,-0.18,0.285
0.49166666666656056,-0.185,0.29
0.4944444444445253,-0.2,0.31
0.49722222222226264,-0.185,0.325
0.5,-0.17,0.325
0.5027777777777374,-0.165,0.325
0.5055555555554747,-0.18,0.31
0.5083333333334394,-0.185,0.305
0.5111111111111768,-0.15,0.325
0.5138888888889142,-0.14,0.335
0.5166666666666515,-0.145,0.34
0.5194444444443889,-0.145,0.33
0.5222222222221262,-0.155,0.33
0.525000000000091,-0.16,0.33
0.5277777777778283,-0.135,0.335
0.5305555555555657,-0.125,0.34
0.533333333333303,-0.125,0.34
0.5361111111110404,-0.14,0.32
0.5388888888887777,-0.135,0.295
0.5416666666667425,-0.125,0.31
0.5444444444444798,-0.1,0.33
0.5472222222222172,-0.1,0.355
0.5499999999999545,-0.08,0.36
0.5527777777776919,-0.075,0.335
0.5555555555554292,-0.08,0.34
0.558333333333394,-0.08,0.345
0.5611111111111313,-0.085,0.375
0.5638888888888687,-0.065,0.38
0.566666666666606,-0.045,0.38
0.5694444444445708,-0.05,0.37
0.5722222222223081,-0.055,0.36
0.5750000000000455,-0.04,0.38
0.5777777777777828,-0.03,0.4
0.5805555555555202,-0.005,0.415
0.5833333333332575,-0.005,0.405
0.5861111111112223,-0.01,0.395
0.5888888888889596,-0.005,0.395
0.591666666666697,-0.005,0.405
0.5944444444444343,0.0,0.42
0.5972222222221717,0.045,0.45
0.599999999999909,0.055,0.425
0.6027777777778738,0.06,0.41
0.6055555555556111,0.055,0.405
0.6083333333333485,0.045,0.42
0.6111111111110858,0.05,0.44
0.6138888888888232,0.055,0.46
0.6166666666665606,0.06,0.45
0.6194444444445253,0.055,0.44
0.6222222222222626,0.055,0.425
0.625,0.065,0.45
0.6277777777777374,0.095,0.47
0.6305555555554747,0.115,0.475
0.6333333333334394,0.115,0.48
0.6361111111111768,0.1,0.46
0.6388888888889142,0.09,0.465
0.6416666666666515,0.09,0.48
0.6444444444443889,0.1,0.495
0.6472222222221262,0.145,0.505
0.650000000000091,0.14,0.505
0.6527777777778283,0.135,0.485
0.6555555555555657,0.135,0.48
0.658333333333303,0.125,0.5
0.6611111111110404,0.13,0.53
0.6638888888887777,0.155,0.525
0.6666666666667425,0.13,0.525
0.6694444444444798,0.145,0.505
0.6722222222222172,0.135,0.5
0.6749999999999545,0.135,0.505
0.6777777777776919,0.135,0.52
0.6805555555554292,0.16,0.53
0.683333333333394,0.165,0.51
0.6861111111111313,0.145,0.505
0.6888888888888687,0.135,0.505
0.691666666666606,0.12,0.505
0.6944444444445708,0.145,0.525
0.6972222222223081,0.16,0.52
0.7000000000000455,0.155,0.51
0.7027777777777828,0.145,0.475
0.7055555555555202,0.135,0.47
0.7083333333332575,0.145,0.49
0.7111111111112223,0.15,0.51
0.7138888888889596,0.14,0.505
0.716666666666697,0.145,0.485
0.7194444444444343,0.115,0.46
0.7222222222221717,0.11,0.46
0.724999999999909,0.1,0.47
0.7277777777778738,0.09,0.5
0.7305555555556111,0.105,0.495
0.7333333333333485,0.1,0.47
0.7361111111110858,0.09,0.47
0.7388888888888232,0.08,0.455
0.7416666666665606,0.075,0.455
0.7444444444445253,0.085,0.475
0.7472222222222626,0.09,0.46
0.75,0.095,0.455
0.7527777777777374,0.08,0.43
0.7555555555554747,0.07,0.43
0.7583333333334394,0.07,0.44
0.7611111111111768,0.09,0.455
0.7638888888889142,0.1,0.465
0.7666666666666515,0.105,0.44
0.7694444444443889,0.075,0.42
0.7722222222221262,0.065,0.405
0.775000000000091,0.055,0.42
0.7777777777778283,0.05,0.43
0.7805555555555657,0.055,0.44
0.783333333333303,0.065,0.415
0.7861111111110404,0.055,0.41
0.7888888888887777,0.05,0.395
0.7916666666667425,0.035,0.41
0.7944444444444798,0.045,0.435
0.7972222222222172,0.055,0.425
0.7999999999999545,0.055,0.41
0.8027777777776919,0.035,0.395
0.8055555555554292,0.025,0.385
0.808333333333394,0.03,0.405
0.8111111111111313,0.03,0.415
0.8138888888888687,0.055,0.41
0.816666666666606,0.05,0.4
0.8194444444445708,0.04,0.38
0.8222222222223081,0.025,0.37
0.8250000000000455,0.025,0.39
0.8277777777777828,0.03,0.405
0.8305555555555202,0.045,0.395
0.8333333333332575,0.035,0.385
0.8361111111112223,0.035,0.36
0.8388888888889596,0.02,0.35
0.841666666666697,0.015,0.375
0.8444444444444343,0.02,0.385
0.8472222222221717,0.01,0.385
0.849999999999909,-0.015,0.36
0.8527777777778738,-0.02,0.34
0.8555555555556111,-0.03,0.33
0.8583333333333485,-0.03,0.33
0.8611111111110858,-0.01,0.355
0.8638888888888232,0.0,0.345
0.8666666666665606,-0.005,0.345
0.8694444444445253,-0.01,0.305
0.8722222222222626,-0.03,0.315
0.875,-0.005,0.315
0.8777777777777374,0.01,0.33
0.8805555555554747,0.04,0.33
0.8833333333334394,0.065,0.32
0.8861111111111768,0.05,0.285
0.8888888888889142,-0.025,0.275
0.8916666666666515,-0.11,0.28
0.8944444444443889,-0.135,0.295
0.8972222222221262,-0.14,0.315
0.900000000000091,-0.14,0.3
0.9027777777778283,-0.135,0.275
0.9055555555555657,-0.125,0.25
0.908333333333303,-0.14,0.25
0.9111111111110404,-0.175,0.275
0.9138888888887777,-0.19,0.28
0.9166666666667425,-0.22,0.27
0.9194444444444798,-0.235,0.25
0.9222222222222172,-0.255,0.23
0.9249999999999545,-0.25,0.25
0.9277777777776919,-0.22,0.255
0.9305555555554292,-0.205,0.26
0.933333333333394,-0.215,0.255
0.9361111111111313,-0.24,0.245
0.9388888888888687,-0.25,0.22
0.941666666666606,-0.275,0.24
0.9444444444445708,-0.25,0.255
0.9472222222223081,-0.235,0.26
0.9500000000000455,-0.235,0.24
0.9527777777777828,-0.25,0.21
0.9555555555555202,-0.265,0.215
0.9583333333332575,-0.265,0.22
0.9611111111112223,-0.26,0.235
0.9638888888889596,-0.245,0.26
0.966666666666697,-0.25,0.255
0.9694444444444343,-0.285,0.225
0.9722222222221717,-0.295,0.2
0.974999999999909,-0.32,0.21
0.9777777777778738,-0.3,0.235
0.9805555555556111,-0.29,0.235
0.9833333333333485,-0.285,0.22
0.9861111111110858,-0.295,0.21
0.9888888888888232,-0.3,0.195
0.9916666666665606,-0.29,0.205
0.9944444444445253,-0.27,0.23
0.9972222222222626,-0.245,0.24
1.0,-0.255,0.205
1.0027777777777374,-0.285,0.2
1.0055555555554747,-0.295,0.185
1.0083333333334394,-0.305,0.2
1.0111111111111768,-0.29,0.21
1.0138888888889142,-0.28,0.22
1.0166666666666515,-0.285,0.19
1.0194444444443889,-0.295,0.18
1.0222222222221262,-0.3,0.165
1.025000000000091,-0.29,0.17
1.0277777777778283,-0.28,0.19
1.0305555555555657,-0.28,0.21
1.033333333333303,-0.28,0.185
1.0361111111110404,-0.275,0.155
1.0388888888887777,-0.27,0.15
1.0416666666667425,-0.27,0.17
1.0444444444444798,-0.26,0.18
1.0472222222222172,-0.225,0.2
1.0499999999999545,-0.195,0.185
1.0527777777776919,-0.18,0.16
1.0555555555554292,-0.185,0.145
1.058333333333394,-0.2,0.155
1.0611111111111313,-0.19,0.175
1.0638888888888687,-0.225,0.185
1.066666666666606,-0.29,0.18
1.0694444444445708,-0.305,0.18
1.0722222222223081,-0.32,0.155
1.0750000000000455,-0.285,0.175
1.0777777777777828,-0.235,0.195
1.0805555555555202,-0.225,0.2
1.0833333333332575,-0.23,0.18
1.0861111111112223,-0.265,0.165
1.0888888888889596,-0.26,0.165
1.091666666666697,-0.24,0.2
1.0944444444444343,-0.175,0.215
1.0972222222221717,-0.14,0.2
1.099999999999909,-0.155,0.17
1.1027777777778738,-0.185,0.15
1.1055555555556111,-0.21,0.13
1.1083333333333485,-0.25,0.16
1.1111111111110858,-0.265,0.17
1.1138888888888232,-0.295,0.165
1.1166666666665606,-0.315,0.14
1.1194444444445253,-0.33,0.13
1.1222222222222626,-0.335,0.14
1.125,-0.335,0.15
1.1277777777777374,-0.33,0.155
1.1305555555554747,-0.33,0.165
1.1333333333334394,-0.34,0.15
1.1361111111111768,-0.34,0.125
1.1388888888889142,-0.33,0.115
1.1416666666666515,-0.315,0.14
1.1444444444443889,-0.3,0.145
1.1472222222221262,-0.295,0.14
1.150000000000091,-0.28,0.125
1.1527777777778283,-0.285,0.115
1.1555555555555657,-0.295,0.1
1.158333333333303,-0.285,0.12
1.1611111111110404,-0.275,0.13
1.1638888888887777,-0.265,0.14
1.1666666666667425,-0.265,0.125
1.1694444444444798,-0.265,0.11
1.1722222222222172,-0.285,0.115
1.1749999999999545,-0.275,0.13
1.1777777777776919,-0.265,0.14
1.1805555555554292,-0.255,0.145
1.183333333333394,-0.255,0.125
1.1861111111111313,-0.25,0.115
1.1888888888888687,-0.255,0.125
1.191666666666606,-0.265,0.155
1.1944444444445708,-0.245,0.15
1.1972222222223081,-0.24,0.16
1.2000000000000455,-0.24,0.135
1.2027777777777828,-0.255,0.12
1.2055555555555202,-0.29,0.115
1.2083333333332575,-0.275,0.13
1.2111111111112223,-0.255,0.135
1.2138888888889596,-0.24,0.125
1.216666666666697,-0.23,0.13
1.2194444444444343,-0.245,0.13
1.2222222222221717,-0.26,0.12
1.224999999999909,-0.265,0.14
1.2277777777778738,-0.235,0.14
1.2305555555556111,-0.21,0.145
1.2333333333333485,-0.21,0.145
1.2361111111110858,-0.205,0.15
1.2388888888888232,-0.23,0.14
1.2416666666665606,-0.22,0.14
1.2444444444445253,-0.22,0.135
1.2472222222222626,-0.205,0.14
1.25,-0.21,0.145
1.2527777777777374,-0.235,0.15
1.2555555555554747,-0.215,0.145
1.2583333333334394,-0.21,0.155
1.2611111111111768,-0.175,0.15
1.2638888888889142,-0.15,0.15
1.2666666666666515,-0.135,0.14
1.2694444444443889,-0.15,0.14
1.2722222222221262,-0.185,0.16
1.275000000000091,-0.205,0.16
1.2777777777778283,-0.24,0.165
1.2805555555555657,-0.25,0.17
1.283333333333303,-0.245,0.17
1.2861111111110404,-0.24,0.175
1.2888888888887777,-0.21,0.18
1.2916666666667425,-0.185,0.185
1.2944444444444798,-0.18,0.18
1.2972222222222172,-0.155,0.175
1.2999999999999545,-0.15,0.17
1.3027777777776919,-0.17,0.17
1.3055555555554292,-0.165,0.16
1.308333333333394,-0.16,0.14
1.3111111111111313,-0.2,0.135
1.3138888888888687,-0.2,0.125
1.316666666666606,-0.22,0.09
1.3194444444445708,-0.285,0.06
1.3222222222223081,-0.37,0.045
1.3250000000000455,-0.43,0.015
1.3277777777777828,-0.445,-0.015
1.3305555555555202,-0.43,-0.035
1.3333333333332575,-0.43,-0.075
1.3361111111112223,-0.435,-0.13
1.3388888888889596,-0.46,-0.2
1.341666666666697,-0.545,-0.235
1.3444444444444343,-0.65,-0.245
1.3472222222221717,-0.785,-0.23
1.349999999999909,-0.95,-0.235
1.3527777777778738,-1.125,-0.22
1.3555555555556111,-1.2,-0.19
1.3583333333333485,-1.225,-0.165
1.3611111111110858,-1.225,-0.125
1.3638888888888232,-1.21,-0.07
1.3666666666665606,-1.195,-0.01
1.3694444444445253,-1.13,0.055
1.3722222222222626,-1.055,0.105
1.375,-0.98,0.18
1.3777777777777374,-0.895,0.245
1.3805555555554747,-0.8,0.3
1.3833333333334394,-0.735,0.36
1.3861111111111768,-0.695,0.415
1.3888888888889142,-0.68,0.46
1.3916666666666515,-0.65,0.5
1.3944444444443889,-0.585,0.535
1.3972222222221262,-0.52,0.55
1.400000000000091,-0.455,0.545
1.4027777777778283,-0.41,0.505
1.4055555555555657,-0.365,0.47
1.408333333333303,-0.29,0.435
1.4111111111110404,-0.215,0.4
1.4138888888887777,-0.155,0.37
1.4166666666667425,-0.115,0.355
1.4194444444444798,-0.1,0.335
1.4222222222222172,-0.07,0.315
1.4249999999999545,-0.05,0.315
1.4277777777776919,-0.035,0.305
1.4305555555554292,-0.04,0.31
1.433333333333394,-0.07,0.305
1.4361111111111313,-0.075,0.29
1.4388888888888687,-0.09,0.295
1.441666666666606,-0.105,0.305
1.4444444444445708,-0.09,0.32
1.4472222222223081,-0.085,0.32
1.4500000000000455,-0.055,0.315
1.4527777777777828,-0.065,0.3
1.4555555555555202,-0.05,0.295
1.4583333333332575,-0.015,0.305
1.4611111111112223,0.01,0.305
1.4638888888889596,-0.01,0.325
1.466666666666697,-0.045,0.315
1.4694444444444343,-0.085,0.305
1.4722222222221717,-0.12,0.31
1.474999999999909,-0.125,0.32
1.4777777777778738,-0.105,0.33
1.4805555555556111,-0.105,0.335
1.4833333333333485,-0.115,0.34
1.4861111111110858,-0.115,0.325
1.4888888888888232,-0.1,0.325
1.4916666666665606,-0.075,0.34
1.4944444444445253,-0.05,0.35
1.4972222222222626,-0.03,0.35
1.5,-0.035,0.36
1.5027777777777374,-0.04,0.345
1.5055555555554747,-0.035,0.345
1.5083333333334394,-0.03,0.34
1.5111111111111768,-0.02,0.365
1.5138888888889142,0.0,0.355
1.5166666666666515,0.0,0.365
1.5194444444443889,0.0,0.355
1.5222222222221262,-0.005,0.35
1.525000000000091,0.005,0.365
1.5277777777778283,0.03,0.38
1.5305555555555657,0.045,0.385
1.533333333333303,0.06,0.39
1.5361111111110404,0.075,0.38
1.5388888888887777,0.065,0.39
1.5416666666667425,0.055,0.4
1.5444444444444798,0.05,0.415
1.5472222222222172,0.045,0.415
1.5499999999999545,0.065,0.41
1.5527777777776919,0.055,0.405
1.5555555555554292,0.085,0.395
1.558333333333394,0.095,0.415
1.5611111111111313,0.12,0.425
1.5638888888888687,0.145,0.425
1.566666666666606,0.145,0.44
1.5694444444445708,0.135,0.435
1.5722222222223081,0.11,0.445
1.5750000000000455,0.1,0.44
1.5777777777777828,0.125,0.475
1.5805555555555202,0.135,0.485
1.5833333333332575,0.175,0.49
1.5861111111112223,0.175,0.475
1.5888888888889596,0.17,0.465
1.591666666666697,0.17,0.48
1.5944444444444343,0.185,0.495
1.5972222222221717,0.21,0.515
1.599999999999909,0.21,0.51
1.6027777777778738,0.21,0.515
1.6055555555556111,0.215,0.505
1.6083333333333485,0.24,0.51
1.6111111111110858,0.28,0.53
1.6138888888888232,0.3,0.53
1.6166666666665606,0.3,0.55
1.6194444444445253,0.26,0.535
1.6222222222222626,0.245,0.53
1.625,0.245,0.54
1.6277777777777374,0.28,0.555
1.6305555555554747,0.32,0.57
1.6333333333334394,0.32,0.565
1.6361111111111768,0.295,0.55
1.6388888888889142,0.265,0.54
1.6416666666666515,0.26,0.575
1.6444444444443889,0.255,0.595
1.6472222222221262,0.26,0.61
1.650000000000091,0.26,0.6
1.6527777777778283,0.24,0.6
1.6555555555555657,0.225,0.585
1.658333333333303,0.25,0.595
1.6611111111110404,0.265,0.605
1.6638888888887777,0.27,0.62
1.6666666666667425,0.28,0.625
1.6694444444444798,0.27,0.615
1.6722222222222172,0.265,0.595
1.6749999999999545,0.27,0.6
1.6777777777776919,0.29,0.61
1.6805555555554292,0.325,0.615
1.683333333333394,0.335,0.62
1.6861111111111313,0.335,0.6
1.6888888888888687,0.305,0.59
1.691666666666606,0.28,0.59
1.6944444444445708,0.265,0.615
1.6972222222223081,0.255,0.61
1.7000000000000455,0.26,0.62
1.7027777777777828,0.265,0.605
1.7055555555555202,0.28,0.6
1.7083333333332575,0.265,0.6
1.7111111111112223,0.265,0.61
1.7138888888889596,0.265,0.605
1.716666666666697,0.25,0.615
1.7194444444444343,0.24,0.61
1.7222222222221717,0.24,0.575
1.724999999999909,0.225,0.58
1.7277777777778738,0.24,0.585
1.7305555555556111,0.255,0.595
1.7333333333333485,0.24,0.585
1.7361111111110858,0.24,0.575
1.7388888888888232,0.245,0.56
1.7416666666665606,0.27,0.565
1.7444444444445253,0.305,0.565
1.7472222222222626,0.31,0.565
1.75,0.275,0.565
1.7527777777777374,0.215,0.545
1.7555555555554747,0.175,0.53
1.7583333333334394,0.155,0.53
1.7611111111111768,0.195,0.54
1.7638888888889142,0.225,0.545
1.7666666666666515,0.235,0.535
1.7694444444443889,0.235,0.535
1.7722222222221262,0.245,0.51
1.775000000000091,0.225,0.515
1.7777777777778283,0.165,0.515
1.7805555555555657,0.08,0.52
1.783333333333303,0.005,0.515
1.7861111111110404,0.0,0.52
1.7888888888887777,0.025,0.5
1.7916666666667425,0.055,0.495
1.7944444444444798,0.095,0.515
1.7972222222222172,0.1,0.51
1.7999999999999545,0.11,0.495
1.8027777777776919,0.12,0.495
1.8055555555554292,0.095,0.47
1.808333333333394,0.105,0.465
1.8111111111111313,0.12,0.465
1.8138888888888687,0.13,0.46
1.816666666666606,0.115,0.465
1.8194444444445708,0.08,0.445
1.8222222222223081,0.06,0.43
1.8250000000000455,0.065,0.435
1.8277777777777828,0.08,0.44
1.8305555555555202,0.13,0.435
1.8333333333332575,0.145,0.44
1.8361111111112223,0.11,0.42
1.8388888888889596,0.08,0.41
1.841666666666697,0.03,0.41
1.8444444444444343,0.01,0.42
1.8472222222221717,-0.015,0.415
1.849999999999909,-0.03,0.395
1.8527777777778738,-0.045,0.39
1.8555555555556111,-0.055,0.385
1.8583333333333485,-0.045,0.375
1.8611111111110858,-0.035,0.38
1.8638888888888232,-0.035,0.395
1.8666666666665606,-0.02,0.385
1.8694444444445253,-0.03,0.38
1.8722222222222626,-0.025,0.36
1.875,-0.01,0.35
1.8777777777777374,0.0,0.35
1.8805555555554747,0.005,0.335
1.8833333333334394,-0.01,0.33
1.8861111111111768,-0.03,0.335
1.8888888888889142,-0.065,0.31
1.8916666666666515,-0.085,0.32
1.8944444444443889,-0.105,0.32
1.8972222222221262,-0.09,0.34
1.900000000000091,-0.085,0.32
1.9027777777778283,-0.095,0.315
1.9055555555555657,-0.085,0.29
1.908333333333303,-0.075,0.29
1.9111111111110404,-0.075,0.295
1.9138888888887777,-0.07,0.3
1.9166666666667425,-0.11,0.295
1.9194444444444798,-0.14,0.285
1.9222222222222172,-0.19,0.29
1.9249999999999545,-0.2,0.28
1.9277777777776919,-0.19,0.295
1.9305555555554292,-0.17,0.31
1.933333333333394,-0.155,0.31
1.9361111111111313,-0.15,0.295
1.9388888888888687,-0.155,0.29
1.941666666666606,-0.165,0.265
1.9444444444445708,-0.16,0.275
1.9472222222223081,-0.165,0.27
1.9500000000000455,-0.16,0.26
1.9527777777777828,-0.17,0.27
1.9555555555555202,-0.16,0.265
1.9583333333332575,-0.16,0.265
1.9611111111112223,-0.16,0.26
1.9638888888889596,-0.175,0.265
1.966666666666697,-0.215,0.255
1.9694444444444343,-0.23,0.265
1.9722222222221717,-0.23,0.255
1.974999999999909,-0.205,0.255
1.9777777777778738,-0.19,0.265
1.9805555555556111,-0.18,0.27
1.9833333333333485,-0.19,0.265
1.9861111111110858,-0.19,0.255
1.9888888888888232,-0.19,0.255
1.9916666666665606,-0.175,0.25
1.9944444444445253,-0.165,0.255
1.9972222222222626,-0.135,0.255
2.0,-0.14,0.24
2.0027777777777374,-0.175,0.235
2.0055555555554747,-0.23,0.24
2.0083333333334394,-0.275,0.24
2.011111111111177,-0.26,0.255
2.013888888888914,-0.24,0.255
2.0166666666666515,-0.225,0.255
2.019444444444389,-0.215,0.25
2.022222222222126,-0.21,0.25
2.025000000000091,-0.17,0.26
2.0277777777778283,-0.14,0.255
2.0305555555555657,-0.145,0.25
2.033333333333303,-0.205,0.25
2.0361111111110404,-0.265,0.235
2.0388888888887777,-0.295,0.23
2.0416666666667425,-0.3,0.235
2.04444444444448,-0.26,0.24
2.047222222222217,-0.245,0.235
2.0499999999999545,-0.23,0.23
2.052777777777692,-0.23,0.23
2.0555555555554292,-0.23,0.225
2.058333333333394,-0.225,0.235
2.0611111111111313,-0.21,0.23
2.0638888888888687,-0.215,0.215
2.066666666666606,-0.21,0.22
2.0694444444445708,-0.22,0.2
2.072222222222308,-0.235,0.2
2.0750000000000455,-0.25,0.205
2.077777777777783,-0.24,0.215
2.08055555555552,-0.22,0.205
2.0833333333332575,-0.215,0.195
2.0861111111112223,-0.225,0.2
2.0888888888889596,-0.24,0.19
2.091666666666697,-0.24,0.2
2.0944444444444343,-0.215,0.205
2.0972222222221717,-0.205,0.21
2.099999999999909,-0.205,0.215
2.102777777777874,-0.195,0.19
2.105555555555611,-0.205,0.18
2.1083333333333485,-0.19,0.175
2.111111111111086,-0.175,0.175
2.113888888888823,-0.135,0.18
2.1166666666665606,-0.12,0.195
2.1194444444445253,-0.15,0.19
2.1222222222222626,-0.18,0.175
2.125,-0.2,0.165
2.1277777777777374,-0.21,0.175
2.1305555555554747,-0.225,0.175
2.1333333333334394,-0.245,0.19
2.136111111111177,-0.285,0.17
2.138888888888914,-0.305,0.16
2.1416666666666515,-0.29,0.175
2.144444444444389,-0.29,0.18
2.147222222222126,-0.25,0.195
2.150000000000091,-0.255,0.185
2.1527777777778283,-0.24,0.17
2.1555555555555657,-0.25,0.16
2.158333333333303,-0.255,0.16
2.1611111111110404,-0.25,0.17
2.1638888888887777,-0.21,0.185
2.1666666666667425,-0.215,0.18
2.16944444444448,-0.225,0.16
2.172222222222217,-0.235,0.155
2.1749999999999545,-0.225,0.155
2.177777777777692,-0.215,0.18
2.1805555555554292,-0.21,0.17
2.183333333333394,-0.225,0.16
2.1861111111111313,-0.23,0.13
2.1888888888888687,-0.24,0.12
2.191666666666606,-0.24,0.13
2.1944444444445708,-0.22,0.135
2.197222222222308,-0.23,0.135
2.2000000000000455,-0.23,0.115
2.202777777777783,-0.25,0.09
2.20555555555552,-0.25,0.085
2.2083333333332575,-0.26,0.095
2.2111111111112223,-0.235,0.13
2.2138888888889596,-0.21,0.12
2.216666666666697,-0.21,0.115
2.2194444444444343,-0.235,0.1
2.2222222222221717,-0.24,0.1
2.224999999999909,-0.245,0.1
2.227777777777874,-0.225,0.115
2.230555555555611,-0.195,0.115
2.2333333333333485,-0.205,0.09
2.236111111111086,-0.205,0.085
2.238888888888823,-0.23,0.085
2.2416666666665606,-0.235,0.1
2.2444444444445253,-0.22,0.115
2.2472222222222626,-0.215,0.105
2.25,-0.24,0.095
2.2527777777777374,-0.25,0.075
2.2555555555554747,-0.245,0.085
2.2583333333334394,-0.24,0.09
2.261111111111177,-0.235,0.115
2.263888888888914,-0.225,0.105
2.2666666666666515,-0.225,0.095
2.269444444444389,-0.235,0.07
2.272222222222126,-0.25,0.06
2.275000000000091,-0.235,0.09
2.2777777777778283,-0.21,0.1
2.2805555555555657,-0.215,0.095
2.283333333333303,-0.23,0.09
2.2861111111110404,-0.28,0.06
2.2888888888887777,-0.28,0.055
2.2916666666667425,-0.26,0.08
2.29444444444448,-0.245,0.095
2.297222222222217,-0.24,0.075
2.2999999999999545,-0.255,0.06
2.302777777777692,-0.26,0.045
2.3055555555554292,-0.265,0.055
2.308333333333394,-0.265,0.075
2.3111111111111313,-0.255,0.075
2.3138888888888687,-0.24,0.075
2.316666666666606,-0.24,0.055
2.3194444444445708,-0.255,0.04
2.322222222222308,-0.265,0.05
2.3250000000000455,-0.265,0.055
2.327777777777783,-0.245,0.06
2.33055555555552,-0.245,0.05
2.3333333333332575,-0.23,0.045
2.3361111111112223,-0.235,0.04
2.3388888888889596,-0.24,0.035
2.341666666666697,-0.23,0.055
2.3444444444444343,-0.235,0.065
2.3472222222221717,-0.21,0.055
2.349999999999909,-0.225,0.035
2.352777777777874,-0.23,0.04
2.355555555555611,-0.215,0.04
2.3583333333333485,-0.215,0.05
2.361111111111086,-0.19,0.055
2.363888888888823,-0.18,0.045
2.3666666666665606,-0.18,0.035
2.3694444444445253,-0.185,0.005
2.3722222222222626,-0.225,-0.005
2.375,-0.29,-0.015
2.3777777777777374,-0.38,-0.035
2.3805555555554747,-0.435,-0.05
2.3833333333334394,-0.475,-0.08
2.386111111111177,-0.49,-0.11
2.388888888888914,-0.52,-0.145
2.3916666666666515,-0.545,-0.19
2.394444444444389,-0.59,-0.24
2.397222222222126,-0.61,-0.325
2.400000000000091,-0.64,-0.38
2.4027777777778283,-0.715,-0.425
2.4055555555555657,-0.83,-0.455
2.408333333333303,-0.95,-0.445
2.4111111111110404,-1.07,-0.45
2.4138888888887777,-1.205,-0.435
2.4166666666667425,-1.31,-0.43
2.41944444444448,-1.345,-0.41
2.422222222222217,-1.345,-0.37
2.4249999999999545,-1.3,-0.295
2.427777777777692,-1.24,-0.235
2.4305555555554292,-1.18,-0.15
2.433333333333394,-1.1,-0.095
2.4361111111111313,-1.025,-0.035
2.4388888888888687,-0.96,0.025
2.441666666666606,-0.87,0.1
2.4444444444445708,-0.8,0.19
2.447222222222308,-0.72,0.24
2.4500000000000455,-0.675,0.275
2.452777777777783,-0.63,0.285
2.45555555555552,-0.59,0.265
2.4583333333332575,-0.515,0.27
2.4611111111112223,-0.44,0.255
2.4638888888889596,-0.36,0.215
2.466666666666697,-0.29,0.185
2.4694444444444343,-0.245,0.145
2.4722222222221717,-0.24,0.115
2.474999999999909,-0.225,0.105
2.477777777777874,-0.22,0.095
2.480555555555611,-0.185,0.095
2.4833333333333485,-0.175,0.09
2.486111111111086,-0.165,0.065
2.488888888888823,-0.15,0.06
2.4916666666665606,-0.135,0.06
2.4944444444445253,-0.125,0.065
2.4972222222222626,-0.14,0.065
2.5,-0.15,0.06
2.5027777777777374,-0.165,0.05
2.5055555555554747,-0.17,0.04
2.5083333333334394,-0.16,0.045
2.511111111111177,-0.15,0.06
2.513888888888914,-0.125,0.065
2.5166666666666515,-0.12,0.07
2.519444444444389,-0.115,0.05
2.522222222222126,-0.1,0.025
2.525000000000091,-0.1,0.015
2.5277777777778283,-0.1,0.035
2.5305555555555657,-0.09,0.05
2.533333333333303,-0.09,0.05
2.5361111111110404,-0.1,0.035
2.5388888888887777,-0.125,0.025
2.5416666666667425,-0.115,0.03
2.54444444444448,-0.09,0.035
2.547222222222217,-0.075,0.035
2.5499999999999545,-0.07,0.055
2.552777777777692,-0.075,0.03
2.5555555555554292,-0.08,0.03
2.558333333333394,-0.075,0.03
2.5611111111111313,-0.065,0.055
2.5638888888888687,-0.055,0.045
2.566666666666606,-0.065,0.05
2.5694444444445708,-0.065,0.04
2.572222222222308,-0.055,0.02
2.5750000000000455,-0.05,0.035
2.577777777777783,-0.035,0.05
2.58055555555552,-0.035,0.06
2.5833333333332575,-0.025,0.065
2.5861111111112223,-0.055,0.045
2.5888888888889596,-0.05,0.03
2.591666666666697,-0.035,0.04
2.5944444444444343,-0.015,0.06
2.5972222222221717,0.0,0.07
2.599999999999909,0.01,0.045
2.602777777777874,0.005,0.045
2.605555555555611,0.0,0.035
2.6083333333333485,0.0,0.045
2.611111111111086,0.025,0.055
2.613888888888823,0.045,0.07
2.6166666666665606,0.06,0.065
2.6194444444445253,0.045,0.06
2.6222222222222626,0.065,0.045
2.625,0.055,0.065
2.6277777777777374,0.065,0.07
2.6305555555554747,0.055,0.075
2.6333333333334394,0.035,0.07
2.636111111111177,0.03,0.065
2.638888888888914,0.025,0.085
2.6416666666666515,0.05,0.08
2.644444444444389,0.08,0.105
2.647222222222126,0.085,0.115
2.650000000000091,0.09,0.125
2.6527777777778283,0.07,0.105
2.6555555555555657,0.065,0.115
2.658333333333303,0.075,0.115
2.6611111111110404,0.095,0.12
2.6638888888887777,0.12,0.13
2.6666666666667425,0.11,0.14
2.66944444444448,0.135,0.125
2.672222222222217,0.135,0.12
2.6749999999999545,0.14,0.12
2.677777777777692,0.17,0.135
2.6805555555554292,0.175,0.145
2.683333333333394,0.175,0.145
2.6861111111111313,0.165,0.145
2.6888888888888687,0.17,0.14
2.691666666666606,0.17,0.145
2.6944444444445708,0.195,0.155
2.697222222222308,0.21,0.165
2.7000000000000455,0.2,0.17
2.702777777777783,0.18,0.14
2.70555555555552,0.175,0.145
2.7083333333332575,0.175,0.15
2.7111111111112223,0.195,0.17
2.7138888888889596,0.205,0.175
2.716666666666697,0.195,0.17
2.7194444444444343,0.195,0.175
2.7222222222221717,0.19,0.165
2.724999999999909,0.2,0.165
2.727777777777874,0.21,0.175
2.730555555555611,0.235,0.17
2.7333333333333485,0.23,0.17
2.736111111111086,0.21,0.155
2.738888888888823,0.19,0.135
2.7416666666665606,0.2,0.145
2.7444444444445253,0.23,0.155
2.7472222222222626,0.25,0.17
2.75,0.245,0.16
2.7527777777777374,0.255,0.145
2.7555555555554747,0.255,0.13
2.7583333333334394,0.275,0.14
2.761111111111177,0.28,0.145
2.763888888888914,0.29,0.14
2.7666666666666515,0.26,0.135
2.769444444444389,0.225,0.115
2.772222222222126,0.17,0.11
2.775000000000091,0.175,0.12
2.7777777777778283,0.17,0.14
2.7805555555555657,0.195,0.15
2.783333333333303,0.195,0.16
2.7861111111110404,0.175,0.135
2.7888888888887777,0.18,0.115
2.7916666666667425,0.175,0.115
2.79444444444448,0.175,0.125
2.797222222222217,0.18,0.12
2.7999999999999545,0.185,0.125
2.802777777777692,0.185,0.12
2.8055555555554292,0.175,0.1
2.808333333333394,0.19,0.1
2.8111111111111313,0.195,0.11
2.8138888888888687,0.21,0.105
2.816666666666606,0.21,0.11
2.8194444444445708,0.195,0.1
2.822222222222308,0.185,0.085
2.8250000000000455,0.18,0.095
2.827777777777783,0.175,0.1
2.83055555555552,0.175,0.1
2.8333333333332575,0.18,0.1
2.8361111111112223,0.18,0.095
2.8388888888889596,0.2,0.075
2.841666666666697,0.215,0.075
2.8444444444444343,0.23,0.09
2.8472222222221717,0.245,0.08
2.849999999999909,0.23,0.065
2.852777777777874,0.21,0.065
2.855555555555611,0.2,0.045
2.8583333333333485,0.19,0.055
2.861111111111086,0.195,0.065
2.863888888888823,0.23,0.075
2.8666666666665606,0.235,0.055
2.8694444444445253,0.25,0.045
2.8722222222222626,0.235,0.03
2.875,0.225,0.04
2.8777777777777374,0.225,0.06
2.8805555555554747,0.225,0.06
2.8833333333334394,0.235,0.05
2.886111111111177,0.235,0.035
2.888888888888914,0.225,0.025
2.8916666666666515,0.18,0.03
2.894444444444389,0.175,0.05
2.897222222222126,0.19,0.045
2.900000000000091,0.21,0.055
2.9027777777778283,0.225,0.035
2.9055555555555657,0.225,0.03
2.908333333333303,0.24,0.025
2.9111111111110404,0.205,0.025
2.9138888888887777,0.205,0.02
2.9166666666667425,0.205,0.005
2.91944444444448,0.215,0.0
2.922222222222217,0.22,-0.015
2.9249999999999545,0.23,-0.01
2.927777777777692,0.24,-0.005
2.9305555555554292,0.23,0.005
2.933333333333394,0.205,-0.005
2.9361111111111313,0.17,-0.03
2.9388888888888687,0.145,-0.035
2.941666666666606,0.125,-0.035
2.9444444444445708,0.14,-0.025
2.947222222222308,0.145,-0.01
2.9500000000000455,0.175,-0.025
2.952777777777783,0.18,-0.04
2.95555555555552,0.185,-0.06
2.9583333333332575,0.185,-0.055
2.9611111111112223,0.195,-0.04
2.9638888888889596,0.195,-0.045
2.966666666666697,0.22,-0.06
2.9694444444444343,0.23,-0.075
2.9722222222221717,0.215,-0.09
2.974999999999909,0.21,-0.085
2.977777777777874,0.185,-0.075
2.980555555555611,0.15,-0.07
2.9833333333333485,0.12,-0.06
2.986111111111086,0.085,-0.07
2.988888888888823,0.085,-0.085
2.9916666666665606,0.09,-0.075
2.9944444444445253,0.095,-0.065
2.9972222222222626,0.1,-0.055
3.0,0.105,-0.055
3.0027777777777374,0.095,-0.075
3.0055555555554747,0.09,-0.095
3.0083333333334394,0.095,-0.095
3.011111111111177,0.135,-0.075
3.013888888888914,0.15,-0.065
3.0166666666666515,0.145,-0.085
3.019444444444389,0.12,-0.1
3.022222222222126,0.1,-0.105
3.025000000000091,0.105,-0.095
3.0277777777778283,0.13,-0.065
3.0305555555555657,0.165,-0.055
3.033333333333303,0.165,-0.06
3.0361111111110404,0.18,-0.08
3.0388888888887777,0.19,-0.085
3.0416666666667425,0.205,-0.055
3.04444444444448,0.255,-0.01
3.047222222222217,0.315,0.0
3.0499999999999545,0.37,0.015
3.052777777777692,0.425,0.02
3.0555555555554292,0.48,0.035
3.058333333333394,0.51,0.065
3.0611111111111313,0.535,0.1
3.0638888888888687,0.545,0.115
3.066666666666606,0.56,0.11
3.0694444444445708,0.575,0.11
3.072222222222308,0.62,0.135
3.0750000000000455,0.685,0.17
3.077777777777783,0.735,0.205
3.08055555555552,0.785,0.235
3.0833333333332575,0.82,0.245
3.0861111111112223,0.855,0.265
3.0888888888889596,0.925,0.285
3.091666666666697,0.975,0.35
3.0944444444444343,1.055,0.415
3.0972222222221717,1.115,0.455
3.099999999999909,1.155,0.5
3.102777777777874,1.175,0.525
3.105555555555611,1.2,0.58
3.1083333333333485,1.26,0.625
3.111111111111086,1.335,0.695
3.113888888888823,1.4,0.735
3.1166666666665606,1.455,0.78
3.1194444444445253,1.49,0.815
3.1222222222222626,1.52,0.86
3.125,1.565,0.94
3.1277777777777374,1.585,0.995
3.1305555555554747,1.6,1.025
3.1333333333334394,1.545,1.035
3.136111111111177,1.495,1.03
3.138888888888914,1.42,1.02
3.1416666666666515,1.355,1.01
3.144444444444389,1.255,0.96
3.147222222222126,1.16,0.87
3.150000000000091,1.04,0.77
3.1527777777778283,0.92,0.64
3.1555555555555657,0.8,0.54
3.158333333333303,0.64,0.445
3.1611111111110404,0.48,0.345
3.1638888888887777,0.31,0.21
3.1666666666667425,0.14,0.085
3.16944444444448,-0.03,-0.03
3.172222222222217,-0.17,-0.1
3.1749999999999545,-0.285,-0.175
3.177777777777692,-0.305,-0.235
3.1805555555554292,-0.34,-0.285
3.183333333333394,-0.375,-0.345
3.1861111111111313,-0.42,-0.355
3.1888888888888687,-0.475,-0.36
3.191666666666606,-0.475,-0.355
3.1944444444445708,-0.49,-0.36
3.197222222222308,-0.525,-0.375
3.2000000000000455,-0.555,-0.39
3.202777777777783,-0.58,-0.385
3.20555555555552,-0.605,-0.4
3.2083333333332575,-0.555,-0.39
3.2111111111112223,-0.55,-0.39
3.2138888888889596,-0.545,-0.4
3.216666666666697,-0.55,-0.4
3.2194444444444343,-0.54,-0.405
3.2222222222221717,-0.545,-0.405
3.224999999999909,-0.585,-0.415
3.227777777777874,-0.645,-0.41
3.230555555555611,-0.66,-0.415
3.2333333333333485,-0.68,-0.435
3.236111111111086,-0.665,-0.42
3.238888888888823,-0.66,-0.425
3.2416666666665606,-0.655,-0.43
3.2444444444445253,-0.65,-0.43
3.2472222222222626,-0.655,-0.45
3.25,-0.685,-0.445
3.2527777777777374,-0.72,-0.45
3.2555555555554747,-0.745,-0.445
3.2583333333334394,-0.74,-0.44
3.261111111111177,-0.715,-0.45
3.263888888888914,-0.685,-0.465
3.2666666666666515,-0.695,-0.47
3.269444444444389,-0.71,-0.475
3.272222222222126,-0.715,-0.46
3.275000000000091,-0.71,-0.46
3.2777777777778283,-0.715,-0.455
3.2805555555555657,-0.725,-0.455
3.283333333333303,-0.745,-0.47
3.2861111111110404,-0.73,-0.475
3.2888888888887777,-0.72,-0.48
3.2916666666667425,-0.73,-0.48
3.29444444444448,-0.735,-0.47
3.297222222222217,-0.765,-0.48
3.2999999999999545,-0.78,-0.475
3.302777777777692,-0.775,-0.48
3.3055555555554292,-0.75,-0.465
3.308333333333394,-0.735,-0.455
3.3111111111111313,-0.73,-0.44
3.3138888888888687,-0.755,-0.445
3.316666666666606,-0.76,-0.46
3.3194444444445708,-0.77,-0.47
3.322222222222308,-0.76,-0.475
3.3250000000000455,-0.755,-0.47
3.327777777777783,-0.745,-0.455
3.33055555555552,-0.75,-0.455
3.3333333333332575,-0.745,-0.44
3.3361111111112223,-0.74,-0.44
3.3388888888889596,-0.735,-0.435
3.341666666666697,-0.73,-0.42
3.3444444444444343,-0.735,-0.43
3.3472222222221717,-0.725,-0.425
3.349999999999909,-0.725,-0.43
3.352777777777874,-0.74,-0.445
3.355555555555611,-0.735,-0.43
3.3583333333333485,-0.745,-0.41
3.361111111111086,-0.725,-0.4
3.363888888888823,-0.695,-0.38
3.3666666666665606,-0.685,-0.39
3.3694444444445253,-0.695,-0.39
3.3722222222222626,-0.715,-0.385
3.375,-0.715,-0.38
3.3777777777777374,-0.685,-0.355
3.3805555555554747,-0.67,-0.345
3.3833333333334394,-0.655,-0.345
3.386111111111177,-0.645,-0.345
3.388888888888914,-0.65,-0.355
3.3916666666666515,-0.65,-0.335
3.394444444444389,-0.63,-0.32
3.397222222222126,-0.61,-0.305
3.400000000000091,-0.595,-0.295
3.4027777777778283,-0.59,-0.3
3.4055555555555657,-0.6,-0.3
3.408333333333303,-0.6,-0.29
3.4111111111110404,-0.59,-0.265
3.4138888888887777,-0.575,-0.255
3.4166666666667425,-0.555,-0.24
3.41944444444448,-0.525,-0.27
3.422222222222217,-0.5,-0.28
3.4249999999999545,-0.5,-0.265
3.427777777777692,-0.51,-0.24
3.4305555555554292,-0.535,-0.245
3.433333333333394,-0.53,-0.245
3.4361111111111313,-0.515,-0.25
3.4388888888888687,-0.5,-0.25
3.441666666666606,-0.47,-0.235
3.4444444444445708,-0.45,-0.22
3.447222222222308,-0.45,-0.205
3.4500000000000455,-0.445,-0.225
3.452777777777783,-0.455,-0.23
3.45555555555552,-0.44,-0.235
3.4583333333332575,-0.415,-0.225
3.4611111111112223,-0.39,-0.2
3.4638888888889596,-0.4,-0.195
3.466666666666697,-0.42,-0.2
3.4694444444444343,-0.415,-0.205
3.4722222222221717,-0.395,-0.2
3.474999999999909,-0.375,-0.195
3.477777777777874,-0.365,-0.165
3.480555555555611,-0.39,-0.17
3.4833333333333485,-0.405,-0.185
3.486111111111086,-0.4,-0.195
3.488888888888823,-0.38,-0.2
3.4916666666665606,-0.36,-0.185
3.4944444444445253,-0.345,-0.17
3.4972222222222626,-0.335,-0.16
3.5,-0.34,-0.16
3.5027777777777374,-0.335,-0.17
3.5055555555554747,-0.31,-0.17
3.5083333333334394,-0.305,-0.15
3.511111111111177,-0.305,-0.135
3.513888888888914,-0.305,-0.12
3.5166666666666515,-0.295,-0.125
3.519444444444389,-0.29,-0.15
3.522222222222126,-0.285,-0.145
3.525000000000091,-0.265,-0.12
3.5277777777778283,-0.265,-0.1
3.5305555555555657,-0.24,-0.1
3.533333333333303,-0.265,-0.075
3.5361111111110404,-0.27,-0.09
3.5388888888887777,-0.255,-0.085
3.5416666666667425,-0.25,-0.07
3.54444444444448,-0.235,-0.055
3.547222222222217,-0.225,-0.05
3.5499999999999545,-0.22,-0.055
3.552777777777692,-0.22,-0.08
3.5555555555554292,-0.22,-0.075
3.558333333333394,-0.2,-0.075
3.5611111111111313,-0.17,-0.065
3.5638888888888687,-0.15,-0.065
3.566666666666606,-0.135,-0.06
3.5694444444445708,-0.15,-0.08
3.572222222222308,-0.16,-0.08
3.5750000000000455,-0.165,-0.075
3.577777777777783,-0.13,-0.045
3.58055555555552,-0.085,-0.045
3.5833333333332575,-0.09,-0.04
3.5861111111112223,-0.11,-0.055
3.5888888888889596,-0.13,-0.06
3.591666666666697,-0.125,-0.045
3.5944444444444343,-0.085,-0.025
3.5972222222221717,-0.06,-0.015
3.599999999999909,-0.04,-0.02
3.602777777777874,-0.055,-0.02
3.605555555555611,-0.075,-0.03
3.6083333333333485,-0.08,-0.03
3.611111111111086,-0.045,-0.01
3.613888888888823,-0.03,-0.005
3.6166666666665606,-0.03,-0.005
3.6194444444445253,-0.03,-0.01
3.6222222222222626,-0.025,-0.015
3.625,0.0,-0.01
3.6277777777777374,0.005,0.025
3.6305555555554747,0.02,0.02
3.6333333333334394,0.005,0.01
3.636111111111177,-0.005,0.005
3.638888888888914,0.0,-0.005
3.6416666666666515,0.0,0.015
3.644444444444389,0.01,0.035
3.647222222222126,0.015,0.045
3.650000000000091,0.0,0.035
3.6527777777778283,-0.005,0.01
3.6555555555555657,0.015,0.01
3.658333333333303,0.025,0.025
3.6611111111110404,0.04,0.035
3.6638888888887777,0.06,0.05
3.6666666666667425,0.065,0.03
3.66944444444448,0.045,0.025
3.672222222222217,0.0,0.025
3.6749999999999545,-0.01,0.04
3.677777777777692,0.015,0.055
3.6805555555554292,0.04,0.04
3.683333333333394,0.06,0.045
3.6861111111111313,0.06,0.02
3.6888888888888687,0.045,0.02
3.691666666666606,0.02,0.03
3.6944444444445708,0.01,0.05
3.697222222222308,0.015,0.05
3.7000000000000455,0.03,0.04
3.702777777777783,0.045,0.03
3.70555555555552,0.07,0.025
3.7083333333332575,0.075,0.04
3.7111111111112223,0.06,0.045
3.7138888888889596,0.07,0.055
3.716666666666697,0.065,0.03
3.7194444444444343,0.05,0.015
3.7222222222221717,0.0,0.02
3.724999999999909,0.005,0.035
3.727777777777874,0.03,0.055
3.730555555555611,0.06,0.05
3.7333333333333485,0.085,0.03
3.736111111111086,0.085,0.03
3.738888888888823,0.05,0.03
3.7416666666665606,0.025,0.055
3.7444444444445253,0.01,0.065
3.7472222222222626,0.02,0.055
3.75,0.035,0.05
3.7527777777777374,0.06,0.03
3.7555555555554747,0.065,0.035
3.7583333333334394,0.065,0.05
3.761111111111177,0.06,0.065
3.763888888888914,0.04,0.065
3.7666666666666515,0.055,0.06
3.769444444444389,0.035,0.045
3.772222222222126,0.02,0.04
3.775000000000091,0.005,0.065
3.7777777777778283,0.0,0.065
3.7805555555555657,0.02,0.075
3.783333333333303,0.045,0.05
3.7861111111110404,0.045,0.03
3.7888888888887777,0.065,0.035
3.7916666666667425,0.08,0.07
3.79444444444448,0.08,0.07
3.797222222222217,0.06,0.055
3.7999999999999545,0.045,0.035
3.802777777777692,0.035,0.035
3.8055555555554292,0.02,0.05
3.808333333333394,0.0,0.07
3.8111111111111313,0.03,0.08
3.8138888888888687,0.04,0.065
3.816666666666606,0.045,0.04
3.8194444444445708,0.07,0.025
3.822222222222308,0.065,0.03
3.8250000000000455,0.08,0.05
3.827777777777783,0.08,0.05
3.83055555555552,0.08,0.04
3.8333333333332575,0.035,0.025
3.8361111111112223,0.015,0.02
3.8388888888889596,0.035,0.035
3.841666666666697,0.05,0.065
3.8444444444444343,0.065,0.065
3.8472222222221717,0.065,0.055
3.849999999999909,0.05,0.035
3.852777777777874,0.035,0.035
3.855555555555611,0.06,0.03
3.8583333333333485,0.075,0.065
3.861111111111086,0.065,0.07
3.863888888888823,0.04,0.055
3.8666666666665606,0.035,0.05
3.8694444444445253,0.035,0.035
3.8722222222222626,0.05,0.04
3.875,0.07,0.06
3.8777777777777374,0.085,0.06
3.8805555555554747,0.07,0.045
3.8833333333334394,0.05,0.045
3.886111111111177,0.03,0.03
3.888888888888914,0.04,0.04
3.8916666666666515,0.055,0.05
3.894444444444389,0.06,0.06
3.897222222222126,0.06,0.045
3.900000000000091,0.055,0.03
3.9027777777778283,0.03,0.04
3.9055555555555657,0.04,0.04
3.908333333333303,0.06,0.05
3.9111111111110404,0.08,0.06
3.9138888888887777,0.075,0.03
3.9166666666667425,0.09,0.035
3.91944444444448,0.08,0.04
3.922222222222217,0.06,0.04
3.9249999999999545,0.02,0.045
3.927777777777692,-0.005,0.055
3.9305555555554292,0.02,0.05
3.933333333333394,0.045,0.04
3.9361111111111313,0.075,0.05
3.9388888888888687,0.07,0.045
3.941666666666606,0.075,0.05
3.9444444444445708,0.095,0.045
3.947222222222308,0.115,0.035
3.9500000000000455,0.1,0.03
3.952777777777783,0.085,0.025
3.95555555555552,0.065,0.01
3.9583333333332575,0.06,-0.005
3.9611111111112223,0.05,0.015
3.9638888888889596,0.035,0.025
3.966666666666697,0.035,0.02
3.9694444444444343,0.035,0.02
3.9722222222221717,0.05,0.02
3.974999999999909,0.075,0.02
3.977777777777874,0.09,0.045
3.980555555555611,0.105,0.03
3.9833333333333485,0.09,0.02
3.986111111111086,0.09,0.02
3.988888888888823,0.06,0.02
3.9916666666665606,0.055,0.02
3.9944444444445253,0.05,0.025
3.9972222222222626,0.035,0.02
4.0,0.035,0.025
4.002777777777737,0.025,0.02
4.005555555555475,0.015,0.005
4.008333333333439,0.04,0.01
4.011111111111177,0.08,0.015
4.013888888888914,0.11,0.03
4.0166666666666515,0.095,0.02
4.019444444444389,0.075,0.005
4.022222222222126,0.055,0.0
4.025000000000091,0.085,0.0
4.027777777777828,0.1,0.015
4.030555555555566,0.07,0.025
4.033333333333303,0.05,0.03
4.03611111111104,0.015,-0.005
4.038888888888778,0.01,-0.005
4.0416666666667425,0.045,-0.005
4.04444444444448,0.075,0.025
4.047222222222217,0.105,0.02
4.0499999999999545,0.105,0.01
4.052777777777692,0.075,-0.01
4.055555555555429,0.045,-0.005
4.058333333333394,0.03,0.01
4.061111111111131,0.035,0.03
4.063888888888869,0.025,0.015
4.066666666666606,0.05,0.005
4.069444444444571,0.075,-0.015
4.072222222222308,0.09,-0.02
4.0750000000000455,0.09,0.005
4.077777777777783,0.1,0.015
4.08055555555552,0.085,0.005
4.0833333333332575,0.05,-0.01
4.086111111111222,0.035,-0.025
4.08888888888896,0.04,-0.01
4.091666666666697,0.05,-0.01
4.094444444444434,0.08,0.005
4.097222222222172,0.095,-0.005
4.099999999999909,0.085,-0.02
4.102777777777874,0.055,-0.035
4.105555555555611,0.055,-0.025
4.1083333333333485,0.06,-0.015
4.111111111111086,0.055,0.0
4.113888888888823,0.055,-0.02
4.116666666666561,0.06,-0.04
4.119444444444525,0.055,-0.06
4.122222222222263,0.06,-0.04
4.125,0.075,-0.035
4.127777777777737,0.075,-0.02
4.130555555555475,0.075,-0.035
4.133333333333439,0.055,-0.05
4.136111111111177,0.02,-0.06
4.138888888888914,0.04,-0.07
4.1416666666666515,0.065,-0.065
4.144444444444389,0.09,-0.07
4.147222222222126,0.095,-0.065
4.150000000000091,0.085,-0.06
4.152777777777828,0.075,-0.09
4.155555555555566,0.045,-0.09
4.158333333333303,0.045,-0.095
4.16111111111104,0.045,-0.075
4.163888888888778,0.065,-0.075
4.1666666666667425,0.05,-0.085
4.16944444444448,0.035,-0.095
4.172222222222217,0.04,-0.11
4.1749999999999545,0.075,-0.09
4.177777777777692,0.09,-0.075
4.180555555555429,0.095,-0.085
4.183333333333394,0.065,-0.1
4.186111111111131,0.05,-0.125
4.188888888888869,0.03,-0.125
4.191666666666606,0.035,-0.12
4.194444444444571,0.055,-0.11
4.197222222222308,0.09,-0.115
4.2000000000000455,0.085,-0.15
4.202777777777783,0.05,-0.155
4.20555555555552,0.015,-0.145
4.2083333333332575,0.025,-0.14
4.211111111111222,0.045,-0.13
4.21388888888896,0.04,-0.15
4.216666666666697,0.035,-0.15
4.219444444444434,0.02,-0.165
4.222222222222172,0.015,-0.155
4.224999999999909,0.01,-0.155
4.227777777777874,0.025,-0.145
4.230555555555611,0.025,-0.155
4.2333333333333485,0.035,-0.15
4.236111111111086,0.02,-0.16
4.238888888888823,0.02,-0.155
4.241666666666561,0.03,-0.15
4.244444444444525,0.035,-0.14
4.247222222222263,0.035,-0.145
4.25,0.035,-0.135
4.252777777777737,0.03,-0.155
4.255555555555475,0.015,-0.155
4.258333333333439,0.02,-0.145
4.261111111111177,0.03,-0.14
4.263888888888914,0.035,-0.155
4.2666666666666515,0.035,-0.145
4.269444444444389,0.015,-0.15
4.272222222222126,0.015,-0.15
4.275000000000091,0.005,-0.15
4.277777777777828,0.02,-0.145
4.280555555555566,0.035,-0.135
4.283333333333303,0.025,-0.135
4.28611111111104,0.005,-0.145
4.288888888888778,0.0,-0.14
4.2916666666667425,0.01,-0.14
4.29444444444448,0.02,-0.13
4.297222222222217,0.015,-0.14
4.2999999999999545,0.0,-0.135
4.302777777777692,-0.02,-0.155
4.305555555555429,0.0,-0.145
4.308333333333394,0.0,-0.135
4.311111111111131,0.005,-0.12
4.313888888888869,0.02,-0.135
4.316666666666606,0.025,-0.13
4.319444444444571,0.035,-0.145
4.322222222222308,0.045,-0.14
4.3250000000000455,0.07,-0.13
4.327777777777783,0.085,-0.125
4.33055555555552,0.095,-0.115
4.3333333333332575,0.055,-0.135
4.336111111111222,-0.01,-0.145
4.33888888888896,-0.035,-0.15
4.341666666666697,-0.04,-0.135
4.344444444444434,-0.02,-0.11
4.347222222222172,-0.015,-0.11
4.349999999999909,-0.05,-0.13
4.352777777777874,-0.09,-0.15
4.355555555555611,-0.115,-0.155
4.3583333333333485,-0.11,-0.13
4.361111111111086,-0.085,-0.105
4.363888888888823,-0.09,-0.1
4.366666666666561,-0.11,-0.11
4.369444444444525,-0.13,-0.15
4.372222222222263,-0.175,-0.16
4.375,-0.16,-0.165
4.377777777777737,-0.17,-0.155
4.380555555555475,-0.175,-0.185
4.383333333333439,-0.185,-0.24
4.386111111111177,-0.2,-0.265
4.388888888888914,-0.205,-0.3
4.3916666666666515,-0.205,-0.325
4.394444444444389,-0.215,-0.365
4.397222222222126,-0.245,-0.45
4.400000000000091,-0.3,-0.54
4.402777777777828,-0.37,-0.62
4.405555555555566,-0.46,-0.645
4.408333333333303,-0.57,-0.63
4.41111111111104,-0.7,-0.635
4.413888888888778,-0.87,-0.64
4.4166666666667425,-0.995,-0.66
4.41944444444448,-1.105,-0.685
4.422222222222217,-1.155,-0.655
4.4249999999999545,-1.18,-0.58
4.427777777777692,-1.17,-0.51
4.430555555555429,-1.145,-0.46
4.433333333333394,-1.1,-0.425
4.436111111111131,-1.045,-0.395
4.438888888888869,-0.96,-0.36
4.441666666666606,-0.875,-0.33
4.444444444444571,-0.75,-0.29
4.447222222222308,-0.625,-0.28
4.4500000000000455,-0.515,-0.3
4.452777777777783,-0.465,-0.3
4.45555555555552,-0.43,-0.265
4.4583333333332575,-0.385,-0.225
4.461111111111222,-0.33,-0.185
4.46388888888896,-0.265,-0.175
4.466666666666697,-0.245,-0.195
4.469444444444434,-0.24,-0.2
4.472222222222172,-0.245,-0.19
4.474999999999909,-0.24,-0.15
4.477777777777874,-0.24,-0.13
4.480555555555611,-0.24,-0.105
4.4833333333333485,-0.245,-0.13
4.486111111111086,-0.26,-0.125
4.488888888888823,-0.255,-0.11
4.491666666666561,-0.21,-0.095
4.494444444444525,-0.185,-0.07
4.497222222222263,-0.17,-0.08
4.5,-0.19,-0.105
4.502777777777737,-0.225,-0.13
4.505555555555475,-0.26,-0.145
4.508333333333439,-0.32,-0.135
4.511111111111177,-0.355,-0.12
4.513888888888914,-0.39,-0.115
4.5166666666666515,-0.45,-0.135
4.519444444444389,-0.52,-0.155
4.522222222222126,-0.545,-0.16
4.525000000000091,-0.545,-0.13
4.527777777777828,-0.545,-0.115
4.530555555555566,-0.59,-0.105
4.533333333333303,-0.665,-0.1
4.53611111111104,-0.74,-0.095
4.538888888888778,-0.795,-0.095
4.5416666666667425,-0.885,-0.07
4.54444444444448,-0.96,-0.06
4.547222222222217,-1.005,-0.055
4.5499999999999545,-1.125,-0.085
4.552777777777692,-1.295,-0.1
4.555555555555429,-1.49,-0.085
4.558333333333394,-1.69,-0.075
4.561111111111131,-1.825,-0.06
4.563888888888869,-1.91,-0.07
4.566666666666606,-1.975,-0.09
4.569444444444571,-2.005,-0.105
4.572222222222308,-1.945,-0.08
4.5750000000000455,-1.86,-0.055
4.577777777777783,-1.745,-0.015
4.58055555555552,-1.64,-0.025
4.5833333333332575,-1.555,-0.025
4.586111111111222,-1.465,-0.04
4.58888888888896,-1.36,-0.05
4.591666666666697,-1.325,-0.05
4.594444444444434,-1.385,-0.035
4.597222222222172,-1.4,-0.04
4.599999999999909,-1.4,-0.06
4.602777777777874,-1.41,-0.075
4.605555555555611,-1.445,-0.065
4.6083333333333485,-1.46,-0.045
4.611111111111086,-1.475,-0.02
4.613888888888823,-1.5,-0.02
4.616666666666561,-1.52,-0.02
4.619444444444525,-1.48,-0.01
4.622222222222263,-1.32,0.025
4.625,-1.1,0.085
4.627777777777737,-0.94,0.095
4.630555555555475,-0.88,0.11
4.633333333333439,-0.88,0.11
4.636111111111177,-0.82,0.12
4.638888888888914,-0.71,0.125
4.6416666666666515,-0.62,0.17
4.644444444444389,-0.585,0.2
4.647222222222126,-0.685,0.2
4.650000000000091,-0.875,0.185
4.652777777777828,-1.02,0.19
4.655555555555566,-0.985,0.2
4.658333333333303,-0.79,0.235
4.66111111111104,-0.58,0.265
4.663888888888778,-0.525,0.26
4.6666666666667425,-0.62,0.25
4.66944444444448,-0.715,0.225
4.672222222222217,-0.745,0.22
4.6749999999999545,-0.765,0.26
4.677777777777692,-0.83,0.27
4.680555555555429,-0.92,0.275
4.683333333333394,-0.985,0.265
4.686111111111131,-0.965,0.25
4.688888888888869,-0.94,0.265
4.691666666666606,-0.89,0.29
4.694444444444571,-0.845,0.31
4.697222222222308,-0.81,0.295
4.7000000000000455,-0.805,0.29
4.702777777777783,-0.775,0.255
4.70555555555552,-0.765,0.265
4.7083333333332575,-0.78,0.275
4.711111111111222,-0.775,0.295
4.71388888888896,-0.8,0.29
4.716666666666697,-0.82,0.29
4.719444444444434,-0.86,0.265
4.722222222222172,-0.885,0.28
4.724999999999909,-0.88,0.295
4.727777777777874,-0.885,0.31
4.730555555555611,-0.885,0.33
4.7333333333333485,-0.91,0.32
4.736111111111086,-0.935,0.31
4.738888888888823,-0.96,0.315
4.741666666666561,-1.005,0.345
4.744444444444525,-1.01,0.365
4.747222222222263,-1.02,0.375
4.75,-1.03,0.365
4.752777777777737,-1.065,0.355
4.755555555555475,-1.095,0.37
4.758333333333439,-1.115,0.39
4.761111111111177,-1.14,0.42
4.763888888888914,-1.195,0.425
4.7666666666666515,-1.245,0.405
4.769444444444389,-1.28,0.4
4.772222222222126,-1.3,0.39
4.775000000000091,-1.31,0.4
4.777777777777828,-1.32,0.415
4.780555555555566,-1.34,0.43
4.783333333333303,-1.36,0.42
4.78611111111104,-1.39,0.4
4.788888888888778,-1.39,0.395
4.7916666666667425,-1.365,0.405
4.79444444444448,-1.31,0.405
4.797222222222217,-1.26,0.41
4.7999999999999545,-1.275,0.38
4.802777777777692,-1.34,0.365
4.805555555555429,-1.415,0.35
4.808333333333394,-1.445,0.36
4.811111111111131,-1.415,0.38
4.813888888888869,-1.385,0.39
4.816666666666606,-1.36,0.37
4.819444444444571,-1.34,0.35
4.822222222222308,-1.31,0.34
4.8250000000000455,-1.265,0.345
4.827777777777783,-1.215,0.36
4.83055555555552,-1.165,0.36
4.8333333333332575,-1.14,0.34
4.836111111111222,-1.125,0.325
4.83888888888896,-1.095,0.32
4.841666666666697,-1.09,0.32
4.844444444444434,-1.105,0.34
4.847222222222172,-1.12,0.355
4.849999999999909,-1.135,0.335
4.852777777777874,-1.145,0.325
4.855555555555611,-1.14,0.32
4.8583333333333485,-1.07,0.32
4.861111111111086,-1.01,0.335
4.863888888888823,-0.95,0.335
4.866666666666561,-0.92,0.325
4.869444444444525,-0.885,0.3
4.872222222222263,-0.86,0.285
4.875,-0.825,0.28
4.877777777777737,-0.825,0.27
4.880555555555475,-0.815,0.245
4.883333333333439,-0.81,0.225
4.886111111111177,-0.795,0.205
4.888888888888914,-0.78,0.205
4.8916666666666515,-0.755,0.205
4.894444444444389,-0.725,0.205
4.897222222222126,-0.695,0.185
4.900000000000091,-0.67,0.16
4.902777777777828,-0.65,0.125
4.905555555555566,-0.645,0.095
4.908333333333303,-0.67,0.075
4.91111111111104,-0.67,0.085
4.913888888888778,-0.61,0.085
4.9166666666667425,-0.535,0.06
4.91944444444448,-0.485,0.055
4.922222222222217,-0.495,0.035
4.9249999999999545,-0.5,0.035
4.927777777777692,-0.505,0.065
4.930555555555429,-0.525,0.075
4.933333333333394,-0.545,0.055
4.936111111111131,-0.555,0.04
4.938888888888869,-0.575,0.025
4.941666666666606,-0.57,0.035
4.944444444444571,-0.545,0.05
4.947222222222308,-0.505,0.045
4.9500000000000455,-0.48,0.01
4.952777777777783,-0.505,-0.02
4.95555555555552,-0.54,-0.02
4.9583333333332575,-0.55,-0.01
4.961111111111222,-0.545,-0.03
4.96388888888896,-0.54,-0.025
4.966666666666697,-0.55,-0.05
4.969444444444434,-0.57,-0.07
4.972222222222172,-0.595,-0.085
4.974999999999909,-0.63,-0.095
4.977777777777874,-0.66,-0.09
4.980555555555611,-0.69,-0.09
4.9833333333333485,-0.735,-0.1
4.986111111111086,-0.795,-0.13
4.988888888888823,-0.82,-0.15
4.991666666666561,-0.855,-0.155
4.994444444444525,-0.89,-0.16
4.997222222222263,-0.915,-0.18
5.0,-0.975,-0.2
5.002777777777737,-1.045,-0.225
5.005555555555475,-1.13,-0.235
5.008333333333439,-1.17,-0.245
5.011111111111177,-1.22,-0.265
5.013888888888914,-1.28,-0.285
5.0166666666666515,-1.36,-0.31
5.019444444444389,-1.44,-0.355
5.022222222222126,-1.565,-0.38
5.025000000000091,-1.745,-0.42
5.027777777777828,-1.885,-0.455
5.030555555555566,-1.995,-0.485
5.033333333333303,-2.055,-0.54
5.03611111111104,-2.07,-0.58
5.038888888888778,-2.08,-0.615
5.0416666666667425,-2.085,-0.615
5.04444444444448,-2.075,-0.615
5.047222222222217,-2.085,-0.585
5.0499999999999545,-2.125,-0.56
5.052777777777692,-2.13,-0.56
5.055555555555429,-2.16,-0.545
5.058333333333394,-2.15,-0.515
5.061111111111131,-2.09,-0.475
5.063888888888869,-2.015,-0.445
5.066666666666606,-1.93,-0.46
5.069444444444571,-1.885,-0.48
5.072222222222308,-1.925,-0.51
5.0750000000000455,-2.02,-0.55
5.077777777777783,-2.09,-0.595
5.08055555555552,-2.115,-0.635
5.0833333333332575,-2.095,-0.69
5.086111111111222,-2.01,-0.73
5.08888888888896,-1.925,-0.755
5.091666666666697,-1.85,-0.775
5.094444444444434,-1.77,-0.81
5.097222222222172,-1.68,-0.865
5.099999999999909,-1.615,-0.92
5.102777777777874,-1.55,-0.965
5.105555555555611,-1.495,-0.985
5.1083333333333485,-1.415,-0.975
5.111111111111086,-1.345,-0.93
5.113888888888823,-1.3,-0.915
5.116666666666561,-1.27,-0.9
5.119444444444525,-1.265,-0.915
5.122222222222263,-1.27,-0.92
5.125,-1.275,-0.91
5.127777777777737,-1.255,-0.9
5.130555555555475,-1.26,-0.88
5.133333333333439,-1.26,-0.895
5.136111111111177,-1.255,-0.905
5.138888888888914,-1.26,-0.92
5.1416666666666515,-1.26,-0.915
5.144444444444389,-1.23,-0.89
5.147222222222126,-1.215,-0.865
5.150000000000091,-1.225,-0.86
5.152777777777828,-1.245,-0.85
5.155555555555566,-1.265,-0.85
5.158333333333303,-1.255,-0.83
5.16111111111104,-1.22,-0.81
5.163888888888778,-1.195,-0.81
5.1666666666667425,-1.19,-0.805
5.16944444444448,-1.18,-0.81
5.172222222222217,-1.17,-0.81
5.1749999999999545,-1.185,-0.81
5.177777777777692,-1.185,-0.8
5.180555555555429,-1.215,-0.815
5.183333333333394,-1.225,-0.825
5.186111111111131,-1.24,-0.85
5.188888888888869,-1.225,-0.855
5.191666666666606,-1.205,-0.84
5.194444444444571,-1.175,-0.82
5.197222222222308,-1.145,-0.815
5.2000000000000455,-1.14,-0.845
5.202777777777783,-1.15,-0.88
5.20555555555552,-1.145,-0.885
5.2083333333332575,-1.135,-0.88
5.211111111111222,-1.145,-0.86
5.21388888888896,-1.15,-0.85
5.216666666666697,-1.155,-0.86
5.219444444444434,-1.17,-0.87
5.222222222222172,-1.165,-0.87
5.224999999999909,-1.17,-0.865
5.227777777777874,-1.165,-0.85
5.230555555555611,-1.14,-0.85
5.2333333333333485,-1.13,-0.85
5.236111111111086,-1.125,-0.865
5.238888888888823,-1.11,-0.865
5.241666666666561,-1.095,-0.85
5.244444444444525,-1.07,-0.835
5.247222222222263,-1.06,-0.825
5.25,-1.07,-0.835
5.252777777777737,-1.08,-0.83
5.255555555555475,-1.1,-0.825
5.258333333333439,-1.05,-0.81
5.261111111111177,-1.04,-0.765
5.263888888888914,-1.015,-0.775
5.2666666666666515,-1.01,-0.795
5.269444444444389,-1.01,-0.79
5.272222222222126,-0.995,-0.795
5.275000000000091,-0.955,-0.77
5.277777777777828,-0.935,-0.75
5.280555555555566,-0.94,-0.75
5.283333333333303,-0.96,-0.765
5.28611111111104,-0.98,-0.785
5.288888888888778,-0.965,-0.77
5.2916666666667425,-0.92,-0.755
5.29444444444448,-0.885,-0.72
5.297222222222217,-0.885,-0.715
5.2999999999999545,-0.875,-0.715
5.302777777777692,-0.885,-0.715
5.305555555555429,-0.88,-0.71
5.308333333333394,-0.865,-0.685
5.311111111111131,-0.85,-0.655
5.313888888888869,-0.835,-0.645
5.316666666666606,-0.835,-0.635
5.319444444444571,-0.84,-0.63
5.322222222222308,-0.83,-0.635
5.3250000000000455,-0.805,-0.605
5.327777777777783,-0.775,-0.58
5.33055555555552,-0.755,-0.575
5.3333333333332575,-0.765,-0.58
5.336111111111222,-0.78,-0.57
5.33888888888896,-0.78,-0.57
5.341666666666697,-0.755,-0.57
5.344444444444434,-0.74,-0.555
5.347222222222172,-0.715,-0.535
5.349999999999909,-0.715,-0.53
5.352777777777874,-0.725,-0.525
5.355555555555611,-0.73,-0.52
5.3583333333333485,-0.71,-0.5
5.361111111111086,-0.67,-0.475
5.363888888888823,-0.65,-0.465
5.366666666666561,-0.635,-0.46
5.369444444444525,-0.63,-0.47
5.372222222222263,-0.635,-0.465
5.375,-0.625,-0.45
5.377777777777737,-0.635,-0.425
5.380555555555475,-0.625,-0.42
5.383333333333439,-0.63,-0.435
5.386111111111177,-0.625,-0.45
5.388888888888914,-0.615,-0.455
5.3916666666666515,-0.615,-0.435
5.394444444444389,-0.635,-0.42
5.397222222222126,-0.635,-0.4
5.400000000000091,-0.65,-0.405
5.402777777777828,-0.65,-0.4
5.405555555555566,-0.65,-0.385
5.408333333333303,-0.645,-0.36
5.41111111111104,-0.645,-0.35
5.413888888888778,-0.635,-0.34
5.4166666666667425,-0.645,-0.335
5.41944444444448,-0.655,-0.345
5.422222222222217,-0.65,-0.355
5.4249999999999545,-0.645,-0.365
5.427777777777692,-0.62,-0.355
5.430555555555429,-0.615,-0.345
5.433333333333394,-0.62,-0.35
5.436111111111131,-0.645,-0.36
5.438888888888869,-0.665,-0.36
5.441666666666606,-0.66,-0.345
5.444444444444571,-0.655,-0.345
5.447222222222308,-0.66,-0.35
5.4500000000000455,-0.665,-0.36
5.452777777777783,-0.685,-0.365
5.45555555555552,-0.68,-0.375
5.4583333333332575,-0.665,-0.37
5.461111111111222,-0.67,-0.35
5.46388888888896,-0.675,-0.345
5.466666666666697,-0.68,-0.355
5.469444444444434,-0.7,-0.345
5.472222222222172,-0.7,-0.34
5.474999999999909,-0.695,-0.34
5.477777777777874,-0.685,-0.32
5.480555555555611,-0.7,-0.32
5.4833333333333485,-0.705,-0.33
5.486111111111086,-0.725,-0.335
5.488888888888823,-0.72,-0.34
5.491666666666561,-0.71,-0.345
5.494444444444525,-0.7,-0.335
5.497222222222263,-0.695,-0.325
5.5,-0.7,-0.34
5.502777777777737,-0.715,-0.355
5.505555555555475,-0.72,-0.335
5.508333333333439,-0.71,-0.335
5.511111111111177,-0.7,-0.34
5.513888888888914,-0.705,-0.35
5.5166666666666515,-0.71,-0.365
5.519444444444389,-0.715,-0.385
5.522222222222126,-0.71,-0.39
5.525000000000091,-0.71,-0.395
5.527777777777828,-0.7,-0.395
5.530555555555566,-0.72,-0.395
5.533333333333303,-0.735,-0.415
5.53611111111104,-0.74,-0.405
5.538888888888778,-0.72,-0.405
5.5416666666667425,-0.715,-0.41
5.54444444444448,-0.7,-0.41
5.547222222222217,-0.69,-0.41
5.5499999999999545,-0.69,-0.415
5.552777777777692,-0.715,-0.41
5.555555555555429,-0.735,-0.395
5.558333333333394,-0.715,-0.4
5.561111111111131,-0.715,-0.39
5.563888888888869,-0.69,-0.41
5.566666666666606,-0.71,-0.415
5.569444444444571,-0.73,-0.41
5.572222222222308,-0.73,-0.405
5.5750000000000455,-0.72,-0.395
5.577777777777783,-0.71,-0.385
5.58055555555552,-0.685,-0.38
5.5833333333332575,-0.705,-0.39
5.586111111111222,-0.72,-0.385
5.58888888888896,-0.73,-0.385
5.591666666666697,-0.71,-0.375
5.594444444444434,-0.7,-0.375
5.597222222222172,-0.695,-0.4
5.599999999999909,-0.69,-0.4
5.602777777777874,-0.695,-0.415
5.605555555555611,-0.7,-0.405
5.6083333333333485,-0.71,-0.395
5.611111111111086,-0.705,-0.39
5.613888888888823,-0.705,-0.39
5.616666666666561,-0.705,-0.395
5.619444444444525,-0.735,-0.39
5.622222222222263,-0.72,-0.39
5.625,-0.735,-0.39
5.627777777777737,-0.71,-0.395
5.630555555555475,-0.705,-0.4
5.633333333333439,-0.71,-0.41
5.636111111111177,-0.72,-0.395
5.638888888888914,-0.725,-0.39
5.6416666666666515,-0.705,-0.37
5.644444444444389,-0.695,-0.38
5.647222222222126,-0.695,-0.365
5.650000000000091,-0.71,-0.385
5.652777777777828,-0.705,-0.385
5.655555555555566,-0.725,-0.37
5.658333333333303,-0.7,-0.355
5.66111111111104,-0.695,-0.345
5.663888888888778,-0.695,-0.365
5.6666666666667425,-0.69,-0.375
5.66944444444448,-0.695,-0.39
5.672222222222217,-0.705,-0.365
5.6749999999999545,-0.695,-0.355
5.677777777777692,-0.685,-0.345
5.680555555555429,-0.68,-0.36
5.683333333333394,-0.695,-0.365
5.686111111111131,-0.715,-0.365
5.688888888888869,-0.71,-0.355
5.691666666666606,-0.695,-0.34
5.694444444444571,-0.69,-0.335
5.697222222222308,-0.68,-0.345
5.7000000000000455,-0.695,-0.34
5.702777777777783,-0.69,-0.35
5.70555555555552,-0.69,-0.335
5.7083333333332575,-0.68,-0.325
5.711111111111222,-0.675,-0.32
5.71388888888896,-0.665,-0.32
5.716666666666697,-0.66,-0.34
5.719444444444434,-0.67,-0.345
5.722222222222172,-0.675,-0.33
5.724999999999909,-0.66,-0.315
5.727777777777874,-0.65,-0.305
5.730555555555611,-0.65,-0.32
5.7333333333333485,-0.66,-0.32
5.736111111111086,-0.67,-0.325
5.738888888888823,-0.66,-0.305
5.741666666666561,-0.66,-0.305
5.744444444444525,-0.635,-0.29
5.747222222222263,-0.64,-0.3
5.75,-0.655,-0.32
5.752777777777737,-0.655,-0.325
5.755555555555475,-0.635,-0.305
5.758333333333439,-0.62,-0.295
5.761111111111177,-0.62,-0.3
5.763888888888914,-0.62,-0.31
5.7666666666666515,-0.645,-0.32
5.769444444444389,-0.645,-0.315
5.772222222222126,-0.665,-0.3
5.775000000000091,-0.64,-0.29
5.777777777777828,-0.615,-0.285
5.780555555555566,-0.605,-0.305
5.783333333333303,-0.6,-0.305
5.78611111111104,-0.6,-0.31
5.788888888888778,-0.6,-0.31
5.7916666666667425,-0.605,-0.29
5.79444444444448,-0.595,-0.28
5.797222222222217,-0.615,-0.29
5.7999999999999545,-0.61,-0.31
5.802777777777692,-0.63,-0.31
5.805555555555429,-0.625,-0.305
5.808333333333394,-0.615,-0.265
5.811111111111131,-0.61,-0.275
5.813888888888869,-0.595,-0.29
5.816666666666606,-0.605,-0.305
5.819444444444571,-0.615,-0.3
5.822222222222308,-0.61,-0.29
5.8250000000000455,-0.59,-0.27
5.827777777777783,-0.58,-0.25
5.83055555555552,-0.585,-0.27
5.8333333333332575,-0.59,-0.285
5.836111111111222,-0.605,-0.3
5.83888888888896,-0.595,-0.28
5.841666666666697,-0.58,-0.26
5.844444444444434,-0.57,-0.245
5.847222222222172,-0.565,-0.25
5.849999999999909,-0.56,-0.275
5.852777777777874,-0.56,-0.29
5.855555555555611,-0.58,-0.27
5.8583333333333485,-0.56,-0.26
5.861111111111086,-0.555,-0.25
5.863888888888823,-0.555,-0.27
5.866666666666561,-0.565,-0.28
5.869444444444525,-0.575,-0.29
5.872222222222263,-0.575,-0.26
5.875,-0.55,-0.24
5.877777777777737,-0.53,-0.24
5.880555555555475,-0.54,-0.255
5.883333333333439,-0.545,-0.26
5.886111111111177,-0.565,-0.265
5.888888888888914,-0.56,-0.265
5.8916666666666515,-0.54,-0.235
5.894444444444389,-0.53,-0.225
5.897222222222126,-0.515,-0.24
5.900000000000091,-0.515,-0.26
5.902777777777828,-0.52,-0.27
5.905555555555566,-0.52,-0.27
5.908333333333303,-0.52,-0.24
5.91111111111104,-0.515,-0.235
5.913888888888778,-0.505,-0.23
5.9166666666667425,-0.505,-0.25
5.91944444444448,-0.51,-0.245
5.922222222222217,-0.5,-0.25
5.9249999999999545,-0.505,-0.22
5.927777777777692,-0.485,-0.21
5.930555555555429,-0.495,-0.22
5.933333333333394,-0.5,-0.235
5.936111111111131,-0.515,-0.235
5.938888888888869,-0.515,-0.225
5.941666666666606,-0.485,-0.215
5.944444444444571,-0.465,-0.21
5.947222222222308,-0.475,-0.215
5.9500000000000455,-0.485,-0.215
5.952777777777783,-0.49,-0.24
5.95555555555552,-0.48,-0.225
5.9583333333332575,-0.48,-0.21
5.961111111111222,-0.475,-0.195
5.96388888888896,-0.46,-0.195
5.966666666666697,-0.465,-0.205
5.969444444444434,-0.455,-0.225
5.972222222222172,-0.455,-0.215
5.974999999999909,-0.455,-0.195
5.977777777777874,-0.44,-0.18
5.980555555555611,-0.435,-0.195
5.9833333333333485,-0.45,-0.205
5.986111111111086,-0.46,-0.21
5.988888888888823,-0.47,-0.205
5.991666666666561,-0.46,-0.195
5.994444444444525,-0.43,-0.165
5.997222222222263,-0.43,-0.175
6.0,-0.425,-0.195
6.002777777777737,-0.44,-0.195
6.005555555555475,-0.465,-0.2
6.008333333333439,-0.435,-0.17
6.011111111111177,-0.43,-0.155
6.013888888888914,-0.425,-0.155
6.0166666666666515,-0.43,-0.18
6.019444444444389,-0.425,-0.195
6.022222222222126,-0.43,-0.195
6.025000000000091,-0.41,-0.185
6.027777777777828,-0.4,-0.175
6.030555555555566,-0.405,-0.17
6.033333333333303,-0.415,-0.185
6.03611111111104,-0.435,-0.205
6.038888888888778,-0.43,-0.2
6.0416666666667425,-0.415,-0.175
6.04444444444448,-0.405,-0.17
6.047222222222217,-0.405,-0.17
6.0499999999999545,-0.39,-0.175
6.052777777777692,-0.38,-0.18
6.055555555555429,-0.36,-0.195
6.058333333333394,-0.36,-0.2
6.061111111111131,-0.37,-0.17
6.063888888888869,-0.405,-0.185
6.066666666666606,-0.425,-0.175
6.069444444444571,-0.465,-0.18
6.072222222222308,-0.445,-0.18
6.0750000000000455,-0.42,-0.185
6.077777777777783,-0.41,-0.16
6.08055555555552,-0.395,-0.165
6.0833333333332575,-0.41,-0.175
6.086111111111222,-0.4,-0.185
6.08888888888896,-0.395,-0.185
6.091666666666697,-0.36,-0.175
6.094444444444434,-0.365,-0.17
6.097222222222172,-0.365,-0.185
6.099999999999909,-0.385,-0.185
6.102777777777874,-0.4,-0.185
6.105555555555611,-0.405,-0.18
6.1083333333333485,-0.405,-0.185
6.111111111111086,-0.39,-0.18
6.113888888888823,-0.375,-0.18
6.116666666666561,-0.39,-0.17
6.119444444444525,-0.385,-0.195
6.122222222222263,-0.39,-0.185
6.125,-0.38,-0.17
6.127777777777737,-0.375,-0.175
6.130555555555475,-0.375,-0.175
6.133333333333439,-0.39,-0.18
6.136111111111177,-0.395,-0.185
6.138888888888914,-0.38,-0.18
6.1416666666666515,-0.365,-0.185
6.144444444444389,-0.36,-0.185
6.147222222222126,-0.365,-0.195
6.150000000000091,-0.35,-0.195
6.152777777777828,-0.37,-0.195
6.155555555555566,-0.37,-0.2
6.158333333333303,-0.36,-0.185
6.16111111111104,-0.345,-0.19
6.163888888888778,-0.345,-0.21
6.1666666666667425,-0.35,-0.215
6.16944444444448,-0.365,-0.215
6.172222222222217,-0.37,-0.21
6.1749999999999545,-0.355,-0.205
6.177777777777692,-0.335,-0.205
6.180555555555429,-0.34,-0.22
6.183333333333394,-0.33,-0.235
6.186111111111131,-0.345,-0.24
6.188888888888869,-0.335,-0.23
6.191666666666606,-0.325,-0.225
6.194444444444571,-0.325,-0.235
6.197222222222308,-0.33,-0.255
6.2000000000000455,-0.33,-0.27
6.202777777777783,-0.33,-0.27
6.20555555555552,-0.335,-0.25
6.2083333333332575,-0.325,-0.25
6.211111111111222,-0.315,-0.255
6.21388888888896,-0.315,-0.265
6.216666666666697,-0.32,-0.285
6.219444444444434,-0.325,-0.27
6.222222222222172,-0.325,-0.26
6.224999999999909,-0.305,-0.26
6.227777777777874,-0.29,-0.25
6.230555555555611,-0.3,-0.28
6.2333333333333485,-0.31,-0.29
6.236111111111086,-0.335,-0.28
6.238888888888823,-0.34,-0.28
6.241666666666561,-0.32,-0.26
6.244444444444525,-0.315,-0.275
6.247222222222263,-0.295,-0.29
6.25,-0.305,-0.305
6.252777777777737,-0.32,-0.285
6.255555555555475,-0.32,-0.29
6.258333333333439,-0.315,-0.28
6.261111111111177,-0.3,-0.275
6.263888888888914,-0.3,-0.29
6.2666666666666515,-0.3,-0.305
6.269444444444389,-0.305,-0.3
6.272222222222126,-0.31,-0.285
6.275000000000091,-0.305,-0.285
6.277777777777828,-0.305,-0.265
6.280555555555566,-0.285,-0.29
6.283333333333303,-0.295,-0.305
6.28611111111104,-0.3,-0.31
6.288888888888778,-0.325,-0.295
6.2916666666667425,-0.31,-0.28
6.29444444444448,-0.305,-0.275
6.297222222222217,-0.285,-0.29
6.2999999999999545,-0.305,-0.3
6.302777777777692,-0.315,-0.3
6.305555555555429,-0.32,-0.29
6.308333333333394,-0.315,-0.27
6.311111111111131,-0.315,-0.28
6.313888888888869,-0.305,-0.29
6.316666666666606,-0.3,-0.305
6.319444444444571,-0.32,-0.315
6.322222222222308,-0.32,-0.31
6.3250000000000455,-0.31,-0.28
6.327777777777783,-0.305,-0.275
6.33055555555552,-0.3,-0.27
6.3333333333332575,-0.315,-0.305
6.336111111111222,-0.32,-0.315
6.33888888888896,-0.32,-0.295
6.341666666666697,-0.315,-0.285
6.344444444444434,-0.29,-0.275
6.347222222222172,-0.295,-0.295
6.349999999999909,-0.305,-0.31
6.352777777777874,-0.315,-0.33
6.355555555555611,-0.325,-0.325
6.3583333333333485,-0.315,-0.315
6.361111111111086,-0.295,-0.315
6.363888888888823,-0.3,-0.325
6.366666666666561,-0.295,-0.35
6.369444444444525,-0.3,-0.36
6.372222222222263,-0.305,-0.355
6.375,-0.27,-0.335
6.377777777777737,-0.275,-0.33
6.380555555555475,-0.255,-0.34
6.383333333333439,-0.27,-0.36
6.386111111111177,-0.255,-0.375
6.388888888888914,-0.25,-0.375
6.3916666666666515,-0.245,-0.36
6.394444444444389,-0.24,-0.345
6.397222222222126,-0.265,-0.355
6.400000000000091,-0.29,-0.385
6.402777777777828,-0.335,-0.415
6.405555555555566,-0.36,-0.42
6.408333333333303,-0.36,-0.415
6.41111111111104,-0.365,-0.425
6.413888888888778,-0.395,-0.455
6.4166666666667425,-0.42,-0.505
6.41944444444448,-0.455,-0.54
6.422222222222217,-0.51,-0.575
6.4249999999999545,-0.56,-0.6
6.427777777777692,-0.56,-0.635
6.430555555555429,-0.58,-0.71
6.433333333333394,-0.62,-0.78
6.436111111111131,-0.685,-0.825
6.438888888888869,-0.805,-0.825
6.441666666666606,-0.94,-0.825
6.444444444444571,-1.1,-0.825
6.447222222222308,-1.28,-0.825
6.4500000000000455,-1.375,-0.825
6.452777777777783,-1.4,-0.825
6.45555555555552,-1.36,-0.8
6.4583333333332575,-1.325,-0.74
6.461111111111222,-1.285,-0.67
6.46388888888896,-1.235,-0.62
6.466666666666697,-1.185,-0.59
6.469444444444434,-1.13,-0.545
6.472222222222172,-1.065,-0.485
6.474999999999909,-0.975,-0.41
6.477777777777874,-0.885,-0.335
6.480555555555611,-0.825,-0.28
6.4833333333333485,-0.785,-0.235
6.486111111111086,-0.74,-0.215
6.488888888888823,-0.705,-0.195
6.491666666666561,-0.65,-0.17
6.494444444444525,-0.595,-0.16
6.497222222222263,-0.54,-0.19
6.5,-0.475,-0.23
6.502777777777737,-0.405,-0.275
6.505555555555475,-0.355,-0.305
6.508333333333439,-0.295,-0.325
6.511111111111177,-0.255,-0.335
6.513888888888914,-0.235,-0.35
6.5166666666666515,-0.235,-0.37
6.519444444444389,-0.225,-0.39
6.522222222222126,-0.225,-0.405
6.525000000000091,-0.205,-0.395
6.527777777777828,-0.195,-0.395
6.530555555555566,-0.19,-0.39
6.533333333333303,-0.195,-0.41
6.53611111111104,-0.175,-0.425
6.538888888888778,-0.165,-0.43
6.5416666666667425,-0.155,-0.435
6.54444444444448,-0.15,-0.43
6.547222222222217,-0.185,-0.435
6.5499999999999545,-0.175,-0.44
6.552777777777692,-0.175,-0.445
6.555555555555429,-0.17,-0.445
6.558333333333394,-0.155,-0.455
6.561111111111131,-0.125,-0.44
6.563888888888869,-0.14,-0.44
6.566666666666606,-0.14,-0.46
6.569444444444571,-0.14,-0.465
6.572222222222308,-0.14,-0.475
6.5750000000000455,-0.115,-0.465
6.577777777777783,-0.1,-0.465
6.58055555555552,-0.11,-0.46
6.5833333333332575,-0.095,-0.465
6.586111111111222,-0.11,-0.475
6.58888888888896,-0.105,-0.475
6.591666666666697,-0.085,-0.475
6.594444444444434,-0.065,-0.475
6.597222222222172,-0.085,-0.48
6.599999999999909,-0.095,-0.48
6.602777777777874,-0.095,-0.485
6.605555555555611,-0.08,-0.485
6.6083333333333485,-0.07,-0.485
6.611111111111086,-0.04,-0.495
6.613888888888823,-0.045,-0.505
6.616666666666561,-0.06,-0.51
6.619444444444525,-0.07,-0.525
6.622222222222263,-0.06,-0.5
6.625,-0.045,-0.505
6.627777777777737,-0.025,-0.505
6.630555555555475,-0.02,-0.53
6.633333333333439,-0.025,-0.54
6.636111111111177,-0.03,-0.54
6.638888888888914,-0.03,-0.54
6.6416666666666515,-0.015,-0.52
6.644444444444389,0.01,-0.525
6.647222222222126,0.01,-0.535
6.650000000000091,0.0,-0.545
6.652777777777828,-0.005,-0.555
6.655555555555566,0.02,-0.54
6.658333333333303,0.035,-0.535
6.66111111111104,0.06,-0.54
6.663888888888778,0.045,-0.545
6.6666666666667425,0.035,-0.545
6.66944444444448,0.04,-0.535
6.672222222222217,0.035,-0.52
6.6749999999999545,0.055,-0.515
6.677777777777692,0.075,-0.52
6.680555555555429,0.075,-0.53
6.683333333333394,0.07,-0.535
6.686111111111131,0.07,-0.52
6.688888888888869,0.07,-0.51
6.691666666666606,0.085,-0.5
6.694444444444571,0.11,-0.5
6.697222222222308,0.105,-0.505
6.7000000000000455,0.095,-0.52
6.702777777777783,0.095,-0.5
6.70555555555552,0.115,-0.495
6.7083333333332575,0.12,-0.47
6.711111111111222,0.14,-0.47
6.71388888888896,0.16,-0.48
6.716666666666697,0.165,-0.49
6.719444444444434,0.165,-0.49
6.722222222222172,0.16,-0.48
6.724999999999909,0.195,-0.455
6.727777777777874,0.2,-0.445
6.730555555555611,0.2,-0.465
6.7333333333333485,0.2,-0.475
6.736111111111086,0.21,-0.48
6.738888888888823,0.195,-0.455
6.741666666666561,0.2,-0.435
6.744444444444525,0.235,-0.43
6.747222222222263,0.22,-0.44
6.75,0.225,-0.45
6.752777777777737,0.22,-0.45
6.755555555555475,0.23,-0.43
6.758333333333439,0.245,-0.41
6.761111111111177,0.255,-0.405
6.763888888888914,0.26,-0.405
6.7666666666666515,0.25,-0.43
6.769444444444389,0.26,-0.425
6.772222222222126,0.26,-0.415
6.775000000000091,0.29,-0.39
6.777777777777828,0.315,-0.385
6.780555555555566,0.325,-0.4
6.783333333333303,0.325,-0.41
6.78611111111104,0.31,-0.41
6.788888888888778,0.305,-0.395
6.7916666666667425,0.3,-0.39
6.79444444444448,0.31,-0.36
6.797222222222217,0.315,-0.375
6.7999999999999545,0.31,-0.385
6.802777777777692,0.305,-0.405
6.805555555555429,0.3,-0.38
6.808333333333394,0.31,-0.37
6.811111111111131,0.31,-0.36
6.813888888888869,0.315,-0.37
6.816666666666606,0.32,-0.385
6.819444444444571,0.325,-0.4
6.822222222222308,0.31,-0.38
6.8250000000000455,0.33,-0.39
6.827777777777783,0.335,-0.37
6.83055555555552,0.325,-0.385
6.8333333333332575,0.32,-0.395
6.836111111111222,0.315,-0.405
6.83888888888896,0.315,-0.41
6.841666666666697,0.33,-0.4
6.844444444444434,0.345,-0.39
6.847222222222172,0.33,-0.39
6.849999999999909,0.32,-0.395
6.852777777777874,0.325,-0.42
6.855555555555611,0.315,-0.415
6.8583333333333485,0.325,-0.4
6.861111111111086,0.33,-0.4
6.863888888888823,0.32,-0.39
6.866666666666561,0.31,-0.39
6.869444444444525,0.295,-0.41
6.872222222222263,0.285,-0.405
6.875,0.295,-0.385
6.877777777777737,0.31,-0.37
6.880555555555475,0.325,-0.37
6.883333333333439,0.315,-0.385
6.886111111111177,0.295,-0.395
6.888888888888914,0.3,-0.39
6.8916666666666515,0.3,-0.39
6.894444444444389,0.325,-0.37
6.897222222222126,0.325,-0.385
6.900000000000091,0.33,-0.38
6.902777777777828,0.31,-0.39
6.905555555555566,0.3,-0.385
6.908333333333303,0.31,-0.375
6.91111111111104,0.32,-0.355
6.913888888888778,0.325,-0.345
6.9166666666667425,0.325,-0.37
6.91944444444448,0.325,-0.375
6.922222222222217,0.32,-0.36
6.9249999999999545,0.35,-0.345
6.927777777777692,0.36,-0.325
6.930555555555429,0.355,-0.33
6.933333333333394,0.36,-0.335
6.936111111111131,0.355,-0.325
6.938888888888869,0.35,-0.32
6.941666666666606,0.365,-0.305
6.944444444444571,0.395,-0.285
6.947222222222308,0.395,-0.275
6.9500000000000455,0.385,-0.28
6.952777777777783,0.4,-0.27
6.95555555555552,0.415,-0.26
6.9583333333332575,0.43,-0.25
6.961111111111222,0.46,-0.245
6.96388888888896,0.46,-0.235
6.966666666666697,0.46,-0.215
6.969444444444434,0.475,-0.215
6.972222222222172,0.475,-0.21
6.974999999999909,0.475,-0.2
6.977777777777874,0.505,-0.185
6.980555555555611,0.515,-0.195
6.9833333333333485,0.515,-0.185
6.986111111111086,0.5,-0.19
6.988888888888823,0.495,-0.17
6.991666666666561,0.525,-0.16
6.994444444444525,0.55,-0.15
6.997222222222263,0.545,-0.145
7.0,0.515,-0.145
7.002777777777737,0.53,-0.145
7.005555555555475,0.525,-0.135
7.008333333333439,0.545,-0.13
7.011111111111177,0.57,-0.135
7.013888888888914,0.575,-0.115
7.0166666666666515,0.575,-0.11
7.019444444444389,0.57,-0.115
7.022222222222126,0.565,-0.12
7.025000000000091,0.565,-0.11
7.027777777777828,0.575,-0.105
7.030555555555566,0.57,-0.105
7.033333333333303,0.555,-0.12
7.03611111111104,0.555,-0.11
7.038888888888778,0.53,-0.12
7.0416666666667425,0.55,-0.1
7.04444444444448,0.55,-0.11
7.047222222222217,0.53,-0.125
7.0499999999999545,0.525,-0.12
7.052777777777692,0.505,-0.13
7.055555555555429,0.495,-0.14
7.058333333333394,0.5,-0.135
7.061111111111131,0.505,-0.14
7.063888888888869,0.5,-0.15
7.066666666666606,0.49,-0.165
7.069444444444571,0.475,-0.165
7.072222222222308,0.47,-0.17
7.0750000000000455,0.455,-0.18
7.077777777777783,0.46,-0.19
7.08055555555552,0.46,-0.19
7.0833333333332575,0.425,-0.21
7.086111111111222,0.385,-0.21
7.08888888888896,0.35,-0.225
7.091666666666697,0.325,-0.215
7.094444444444434,0.29,-0.215
7.097222222222172,0.265,-0.2
7.099999999999909,0.225,-0.19
7.102777777777874,0.19,-0.185
7.105555555555611,0.14,-0.15
7.1083333333333485,0.105,-0.115
7.111111111111086,0.11,-0.07
7.113888888888823,0.11,-0.045
7.116666666666561,0.125,-0.005
7.119444444444525,0.13,0.025
7.122222222222263,0.15,0.06
7.125,0.16,0.09
7.127777777777737,0.15,0.115
7.130555555555475,0.115,0.13
7.133333333333439,0.065,0.12
7.136111111111177,0.035,0.125
7.138888888888914,0.005,0.1
7.1416666666666515,-0.005,0.095
7.144444444444389,-0.04,0.095
7.147222222222126,-0.075,0.055
7.150000000000091,-0.145,0.035
7.152777777777828,-0.22,-0.005
7.155555555555566,-0.27,-0.025
7.158333333333303,-0.335,-0.075
7.16111111111104,-0.405,-0.135
7.163888888888778,-0.475,-0.19
7.1666666666667425,-0.53,-0.24
7.16944444444448,-0.605,-0.305
7.172222222222217,-0.68,-0.395
7.1749999999999545,-0.715,-0.505
7.177777777777692,-0.74,-0.63
7.180555555555429,-0.775,-0.745
7.183333333333394,-0.83,-0.875
7.186111111111131,-0.85,-1.0
7.188888888888869,-0.865,-1.105
7.191666666666606,-0.845,-1.16
7.194444444444571,-0.83,-1.195
7.197222222222308,-0.825,-1.195
7.2000000000000455,-0.85,-1.23
7.202777777777783,-0.85,-1.26
7.20555555555552,-0.85,-1.265
7.2083333333332575,-0.85,-1.265
7.211111111111222,-0.835,-1.27
7.21388888888896,-0.85,-1.285
7.216666666666697,-0.87,-1.295
7.219444444444434,-0.88,-1.3
7.222222222222172,-0.88,-1.31
7.224999999999909,-0.875,-1.305
7.227777777777874,-0.87,-1.31
7.230555555555611,-0.865,-1.315
7.2333333333333485,-0.87,-1.325
7.236111111111086,-0.88,-1.335
7.238888888888823,-0.88,-1.34
7.241666666666561,-0.875,-1.34
7.244444444444525,-0.87,-1.35
7.247222222222263,-0.875,-1.35
7.25,-0.88,-1.37
7.252777777777737,-0.88,-1.395
7.255555555555475,-0.885,-1.395
7.258333333333439,-0.87,-1.385
7.261111111111177,-0.86,-1.38
7.263888888888914,-0.86,-1.39
7.2666666666666515,-0.87,-1.41
7.269444444444389,-0.885,-1.42
7.272222222222126,-0.89,-1.415
7.275000000000091,-0.87,-1.41
7.277777777777828,-0.855,-1.385
7.280555555555566,-0.86,-1.38
7.283333333333303,-0.875,-1.41
7.28611111111104,-0.875,-1.41
7.288888888888778,-0.87,-1.41
7.2916666666667425,-0.84,-1.4
7.29444444444448,-0.84,-1.385
7.297222222222217,-0.83,-1.375
7.2999999999999545,-0.83,-1.4
7.302777777777692,-0.84,-1.41
7.305555555555429,-0.825,-1.395
7.308333333333394,-0.8,-1.385
7.311111111111131,-0.775,-1.37
7.313888888888869,-0.78,-1.37
7.316666666666606,-0.795,-1.37
7.319444444444571,-0.82,-1.36
7.322222222222308,-0.83,-1.365
7.3250000000000455,-0.785,-1.345
7.327777777777783,-0.77,-1.33
7.33055555555552,-0.77,-1.32
7.3333333333332575,-0.79,-1.335
7.336111111111222,-0.795,-1.325
7.33888888888896,-0.78,-1.32
7.341666666666697,-0.765,-1.31
7.344444444444434,-0.75,-1.285
7.347222222222172,-0.735,-1.275
7.349999999999909,-0.74,-1.28
7.352777777777874,-0.735,-1.27
7.355555555555611,-0.725,-1.27
7.3583333333333485,-0.69,-1.235
7.361111111111086,-0.67,-1.23
7.363888888888823,-0.67,-1.215
7.366666666666561,-0.66,-1.225
7.369444444444525,-0.66,-1.24
7.372222222222263,-0.655,-1.21
7.375,-0.63,-1.195
7.377777777777737,-0.615,-1.18
7.380555555555475,-0.6,-1.175
7.383333333333439,-0.6,-1.185
7.386111111111177,-0.61,-1.19
7.388888888888914,-0.61,-1.185
7.3916666666666515,-0.6,-1.17
7.394444444444389,-0.585,-1.165
7.397222222222126,-0.58,-1.15
7.400000000000091,-0.58,-1.17
7.402777777777828,-0.585,-1.16
7.405555555555566,-0.585,-1.15
7.408333333333303,-0.56,-1.125
7.41111111111104,-0.535,-1.11
7.413888888888778,-0.53,-1.105
7.4166666666667425,-0.535,-1.11
7.41944444444448,-0.525,-1.105
7.422222222222217,-0.515,-1.095
7.4249999999999545,-0.49,-1.075
7.427777777777692,-0.475,-1.045
7.430555555555429,-0.47,-1.055
7.433333333333394,-0.475,-1.06
7.436111111111131,-0.48,-1.06
7.438888888888869,-0.47,-1.035
7.441666666666606,-0.44,-1.03
7.444444444444571,-0.43,-1.005
7.447222222222308,-0.425,-1.005
7.4500000000000455,-0.43,-1.01
7.452777777777783,-0.435,-1.005
7.45555555555552,-0.44,-0.99
7.4583333333332575,-0.43,-0.965
7.461111111111222,-0.405,-0.955
7.46388888888896,-0.395,-0.955
7.466666666666697,-0.39,-0.96
7.469444444444434,-0.395,-0.955
7.472222222222172,-0.39,-0.95
7.474999999999909,-0.36,-0.92
7.477777777777874,-0.34,-0.915
7.480555555555611,-0.33,-0.895
7.4833333333333485,-0.335,-0.905
7.486111111111086,-0.335,-0.905
7.488888888888823,-0.325,-0.89
7.491666666666561,-0.31,-0.855
7.494444444444525,-0.295,-0.85
7.497222222222263,-0.28,-0.845
7.5,-0.29,-0.845
7.502777777777737,-0.285,-0.83
7.505555555555475,-0.275,-0.82
7.508333333333439,-0.245,-0.8
7.511111111111177,-0.225,-0.755
7.513888888888914,-0.215,-0.76
7.5166666666666515,-0.24,-0.76
7.519444444444389,-0.245,-0.755
7.522222222222126,-0.235,-0.735
7.525000000000091,-0.23,-0.7
7.527777777777828,-0.225,-0.69
7.530555555555566,-0.23,-0.68
7.533333333333303,-0.225,-0.69
7.53611111111104,-0.225,-0.68
7.538888888888778,-0.205,-0.66
7.5416666666667425,-0.19,-0.645
7.54444444444448,-0.165,-0.625
7.547222222222217,-0.16,-0.62
7.5499999999999545,-0.16,-0.625
7.552777777777692,-0.17,-0.61
7.555555555555429,-0.165,-0.605
7.558333333333394,-0.135,-0.58
7.561111111111131,-0.14,-0.555
7.563888888888869,-0.12,-0.575
7.566666666666606,-0.12,-0.575
7.569444444444571,-0.115,-0.575
7.572222222222308,-0.115,-0.56
7.5750000000000455,-0.1,-0.53
7.577777777777783,-0.085,-0.535
7.58055555555552,-0.08,-0.535
7.5833333333332575,-0.1,-0.54
7.586111111111222,-0.085,-0.55
7.58888888888896,-0.085,-0.535
7.591666666666697,-0.07,-0.51
7.594444444444434,-0.055,-0.5
7.597222222222172,-0.07,-0.495
7.599999999999909,-0.065,-0.52
7.602777777777874,-0.065,-0.52
7.605555555555611,-0.07,-0.5
7.6083333333333485,-0.05,-0.47
7.611111111111086,-0.04,-0.475
7.613888888888823,-0.04,-0.465
7.616666666666561,-0.04,-0.485
7.619444444444525,-0.045,-0.48
7.622222222222263,-0.045,-0.47
7.625,-0.05,-0.435
7.627777777777737,-0.02,-0.44
7.630555555555475,-0.03,-0.44
7.633333333333439,-0.045,-0.44
7.636111111111177,-0.05,-0.445
7.638888888888914,-0.06,-0.42
7.6416666666666515,-0.045,-0.405
7.644444444444389,-0.055,-0.405
7.647222222222126,-0.05,-0.405
7.650000000000091,-0.05,-0.405
7.652777777777828,-0.045,-0.4
7.655555555555566,-0.045,-0.4
7.658333333333303,-0.025,-0.375
7.66111111111104,-0.01,-0.365
7.663888888888778,-0.02,-0.375
7.6666666666667425,-0.02,-0.385
7.66944444444448,-0.045,-0.39
7.672222222222217,-0.045,-0.375
7.6749999999999545,-0.03,-0.37
7.677777777777692,-0.01,-0.36
7.680555555555429,0.0,-0.36
7.683333333333394,-0.01,-0.365
7.686111111111131,-0.01,-0.38
7.688888888888869,-0.015,-0.375
7.691666666666606,-0.02,-0.365
7.694444444444571,-0.02,-0.355
7.697222222222308,-0.02,-0.36
7.7000000000000455,-0.035,-0.375
7.702777777777783,-0.025,-0.365
7.70555555555552,-0.035,-0.365
7.7083333333332575,-0.015,-0.345
7.711111111111222,-0.005,-0.33
7.71388888888896,-0.02,-0.34
7.716666666666697,-0.035,-0.35
7.719444444444434,-0.03,-0.355
7.722222222222172,-0.04,-0.35
7.724999999999909,-0.005,-0.33
7.727777777777874,0.005,-0.31
7.730555555555611,0.005,-0.32
7.7333333333333485,-0.015,-0.33
7.736111111111086,-0.02,-0.34
7.738888888888823,-0.02,-0.32
7.741666666666561,-0.01,-0.315
7.744444444444525,0.005,-0.31
7.747222222222263,0.005,-0.305
7.75,0.0,-0.32
7.752777777777737,-0.01,-0.32
7.755555555555475,-0.02,-0.3
7.758333333333439,-0.01,-0.29
7.761111111111177,0.01,-0.285
7.763888888888914,0.0,-0.28
7.7666666666666515,-0.01,-0.3
7.769444444444389,-0.015,-0.305
7.772222222222126,-0.015,-0.305
7.775000000000091,-0.005,-0.285
7.777777777777828,0.005,-0.265
7.780555555555566,-0.01,-0.265
7.783333333333303,-0.005,-0.285
7.78611111111104,-0.035,-0.29
7.788888888888778,-0.02,-0.285
7.7916666666667425,0.0,-0.265
7.79444444444448,0.015,-0.26
7.797222222222217,0.02,-0.255
7.7999999999999545,0.005,-0.265
7.802777777777692,-0.005,-0.275
7.805555555555429,-0.005,-0.265
7.808333333333394,0.015,-0.25
7.811111111111131,0.02,-0.235
7.813888888888869,0.02,-0.245
7.816666666666606,0.005,-0.26
7.819444444444571,0.0,-0.27
7.822222222222308,-0.005,-0.26
7.8250000000000455,-0.005,-0.24
7.827777777777783,0.015,-0.235
7.83055555555552,0.005,-0.23
7.8333333333332575,0.0,-0.25
7.836111111111222,-0.01,-0.25
7.83888888888896,-0.01,-0.255
7.841666666666697,0.0,-0.23
7.844444444444434,0.02,-0.215
7.847222222222172,0.01,-0.225
7.849999999999909,0.005,-0.235
7.852777777777874,-0.015,-0.24
7.855555555555611,-0.005,-0.24
7.8583333333333485,-0.005,-0.22
7.861111111111086,0.025,-0.2
7.863888888888823,0.025,-0.205
7.866666666666561,0.025,-0.23
7.869444444444525,0.01,-0.22
7.872222222222263,0.0,-0.21
7.875,0.0,-0.2
7.877777777777737,0.005,-0.185
7.880555555555475,0.005,-0.185
7.883333333333439,0.0,-0.21
7.886111111111177,-0.005,-0.21
7.888888888888914,-0.01,-0.2
7.8916666666666515,-0.01,-0.19
7.894444444444389,0.01,-0.17
7.897222222222126,0.005,-0.17
7.900000000000091,-0.005,-0.18
7.902777777777828,-0.015,-0.185
7.905555555555566,-0.01,-0.175
7.908333333333303,0.01,-0.16
7.91111111111104,0.02,-0.15
7.913888888888778,0.01,-0.16
7.9166666666667425,0.005,-0.165
7.91944444444448,0.01,-0.175
7.922222222222217,0.01,-0.155
7.9249999999999545,0.03,-0.135
7.927777777777692,0.035,-0.125
7.930555555555429,0.025,-0.13
7.933333333333394,0.01,-0.15
7.936111111111131,0.0,-0.15
7.938888888888869,0.0,-0.135
7.941666666666606,0.005,-0.125
7.944444444444571,0.015,-0.105
7.947222222222308,0.02,-0.11
7.9500000000000455,0.0,-0.125
7.952777777777783,-0.005,-0.125
7.95555555555552,-0.005,-0.11
7.9583333333332575,0.005,-0.105
7.961111111111222,0.01,-0.095
7.96388888888896,0.01,-0.095
7.966666666666697,0.005,-0.105
7.969444444444434,0.015,-0.11
7.972222222222172,0.01,-0.095
7.974999999999909,0.02,-0.075
7.977777777777874,0.04,-0.07
7.980555555555611,0.035,-0.065
7.9833333333333485,0.03,-0.09
7.986111111111086,0.015,-0.09
7.988888888888823,0.02,-0.085
7.991666666666561,0.015,-0.07
7.994444444444525,0.025,-0.055
7.997222222222263,0.01,-0.06
8.0,-0.02,-0.065
8.002777777777737,-0.015,-0.075
8.005555555555475,0.0,-0.055
8.00833333333344,0.01,-0.06
8.011111111111177,0.02,-0.045
8.013888888888914,0.015,-0.045
8.016666666666652,-0.005,-0.065
8.019444444444389,-0.005,-0.065
8.022222222222126,-0.015,-0.06
8.025000000000091,0.005,-0.035
8.027777777777828,0.025,-0.03
8.030555555555566,0.01,-0.015
8.033333333333303,0.0,-0.035
8.03611111111104,-0.005,-0.045
8.038888888888778,-0.005,-0.05
8.041666666666742,0.005,-0.02
8.04444444444448,0.015,-0.01
8.047222222222217,0.02,-0.01
8.049999999999955,0.025,-0.025
8.052777777777692,0.005,-0.035
8.05555555555543,-0.01,-0.03
8.058333333333394,-0.005,-0.02
8.061111111111131,0.005,0.0
8.063888888888869,0.01,-0.005
8.066666666666606,-0.005,-0.025
8.06944444444457,-0.015,-0.015
8.072222222222308,0.0,-0.02
8.075000000000045,0.0,0.01
8.077777777777783,-0.015,0.01
8.08055555555552,-0.01,0.005
8.083333333333258,-0.025,-0.005
8.086111111111222,-0.015,-0.015
8.08888888888896,-0.02,0.005
8.091666666666697,0.0,0.01
8.094444444444434,0.005,0.035
8.097222222222172,-0.005,0.02
8.099999999999909,-0.02,0.01
8.102777777777874,-0.025,0.0
8.105555555555611,-0.025,0.015
8.108333333333348,-0.02,0.015
8.111111111111086,-0.01,0.035
8.113888888888823,0.005,0.015
8.11666666666656,-0.015,0.005
8.119444444444525,-0.045,0.005
8.122222222222263,-0.035,0.015
8.125,-0.045,0.045
8.127777777777737,-0.025,0.055
8.130555555555475,-0.02,0.035
8.13333333333344,-0.02,0.01
8.136111111111177,-0.035,0.02
8.138888888888914,-0.045,0.015
8.141666666666652,-0.03,0.045
8.144444444444389,-0.02,0.05
8.147222222222126,-0.015,0.06
8.150000000000091,-0.02,0.05
8.152777777777828,-0.03,0.03
8.155555555555566,-0.015,0.045
8.158333333333303,-0.01,0.075
8.16111111111104,-0.01,0.075
8.163888888888778,0.0,0.075
8.166666666666742,-0.015,0.055
8.16944444444448,-0.01,0.05
8.172222222222217,-0.03,0.065
8.174999999999955,-0.015,0.1
8.177777777777692,-0.005,0.085
8.18055555555543,-0.01,0.08
8.183333333333394,-0.025,0.07
8.186111111111131,-0.045,0.06
8.188888888888869,-0.025,0.09
8.191666666666606,-0.015,0.1
8.19444444444457,0.0,0.095
8.197222222222308,-0.005,0.095
8.200000000000045,-0.015,0.08
8.202777777777783,-0.025,0.075
8.20555555555552,-0.02,0.095
8.208333333333258,0.0,0.11
8.211111111111222,0.02,0.11
8.21388888888896,0.01,0.105
8.216666666666697,-0.015,0.085
8.219444444444434,-0.03,0.085
8.222222222222172,-0.015,0.11
8.224999999999909,-0.005,0.115
8.227777777777874,0.005,0.11
8.230555555555611,0.0,0.095
8.233333333333348,-0.03,0.09
8.236111111111086,-0.04,0.095
8.238888888888823,-0.03,0.115
8.24166666666656,-0.005,0.13
8.244444444444525,-0.02,0.12
8.247222222222263,-0.01,0.115
8.25,-0.04,0.095
8.252777777777737,-0.035,0.115
8.255555555555475,-0.03,0.125
8.25833333333344,-0.025,0.135
8.261111111111177,-0.005,0.14
8.263888888888914,-0.015,0.125
8.266666666666652,-0.015,0.115
8.269444444444389,-0.03,0.125
8.272222222222126,-0.04,0.14
8.275000000000091,-0.02,0.145
8.277777777777828,-0.01,0.14
8.280555555555566,0.0,0.13
8.283333333333303,-0.01,0.135
8.28611111111104,0.0,0.14
8.288888888888778,-0.005,0.15
8.291666666666742,-0.01,0.145
8.29444444444448,-0.005,0.15
8.297222222222217,-0.015,0.17
8.299999999999955,-0.015,0.16
8.302777777777692,-0.025,0.165
8.30555555555543,-0.015,0.17
8.308333333333394,-0.01,0.185
8.311111111111131,-0.03,0.17
8.313888888888869,-0.015,0.18
8.316666666666606,-0.01,0.175
8.31944444444457,-0.025,0.19
8.322222222222308,-0.015,0.18
8.325000000000045,-0.015,0.195
8.327777777777783,0.01,0.195
8.33055555555552,0.02,0.195
8.333333333333258,0.005,0.195
8.336111111111222,-0.02,0.185
8.33888888888896,-0.025,0.19
8.341666666666697,-0.02,0.2
8.344444444444434,-0.01,0.21
8.347222222222172,-0.03,0.21
8.349999999999909,-0.055,0.205
8.352777777777874,-0.05,0.205
8.355555555555611,-0.04,0.21
8.358333333333348,-0.02,0.225
8.361111111111086,0.0,0.235
8.363888888888823,0.0,0.235
8.36666666666656,-0.015,0.235
8.369444444444525,-0.015,0.235
8.372222222222263,-0.015,0.23
8.375,-0.035,0.245
8.377777777777737,-0.005,0.25
8.380555555555475,-0.005,0.24
8.38333333333344,-0.005,0.24
8.386111111111177,-0.01,0.23
8.388888888888914,-0.005,0.23
8.391666666666652,-0.01,0.255
8.394444444444389,-0.01,0.25
8.397222222222126,-0.005,0.235
8.400000000000091,-0.005,0.215
8.402777777777828,-0.005,0.215
8.405555555555566,0.0,0.245
8.408333333333303,-0.015,0.245
8.41111111111104,-0.015,0.25
8.413888888888778,-0.025,0.23
8.416666666666742,-0.04,0.215
8.41944444444448,-0.03,0.21
8.422222222222217,-0.025,0.215
8.424999999999955,-0.015,0.235
8.427777777777692,-0.03,0.225
8.43055555555543,-0.04,0.215
8.433333333333394,-0.05,0.21
8.436111111111131,-0.045,0.205
8.438888888888869,-0.02,0.23
8.441666666666606,-0.02,0.26
8.44444444444457,-0.015,0.23
8.447222222222308,-0.005,0.235
8.450000000000045,-0.02,0.235
8.452777777777783,-0.045,0.23
8.45555555555552,-0.035,0.26
8.458333333333258,-0.025,0.26
8.461111111111222,-0.005,0.25
8.46388888888896,-0.005,0.25
8.466666666666697,-0.015,0.225
8.469444444444434,-0.03,0.25
8.472222222222172,-0.03,0.255
8.474999999999909,-0.02,0.255
8.477777777777874,0.01,0.25
8.480555555555611,0.01,0.235
8.483333333333348,-0.02,0.235
8.486111111111086,-0.075,0.205
8.488888888888823,-0.125,0.21
8.49166666666656,-0.135,0.2
8.494444444444525,-0.155,0.165
8.497222222222263,-0.185,0.14
8.5,-0.21,0.115
8.502777777777737,-0.25,0.085
8.505555555555475,-0.315,0.055
8.50833333333344,-0.365,0.0
8.511111111111177,-0.365,-0.07
8.513888888888914,-0.395,-0.12
8.516666666666652,-0.475,-0.16
8.519444444444389,-0.625,-0.18
8.522222222222126,-0.79,-0.195
8.525000000000091,-0.98,-0.175
8.527777777777828,-1.115,-0.17
8.530555555555566,-1.16,-0.14
8.533333333333303,-1.155,-0.13
8.53611111111104,-1.13,-0.095
8.538888888888778,-1.1,-0.03
8.541666666666742,-1.05,0.06
8.54444444444448,-0.97,0.13
8.547222222222217,-0.895,0.2
8.549999999999955,-0.79,0.26
8.552777777777692,-0.67,0.335
8.55555555555543,-0.585,0.4
8.558333333333394,-0.535,0.485
8.561111111111131,-0.49,0.54
8.563888888888869,-0.45,0.565
8.566666666666606,-0.41,0.56
8.56944444444457,-0.385,0.53
8.572222222222308,-0.315,0.51
8.575000000000045,-0.23,0.495
8.577777777777783,-0.15,0.47
8.58055555555552,-0.085,0.435
8.583333333333258,-0.05,0.385
8.586111111111222,-0.03,0.375
8.58888888888896,0.005,0.365
8.591666666666697,0.015,0.375
8.594444444444434,0.025,0.375
8.597222222222172,0.015,0.36
8.599999999999909,-0.005,0.34
8.602777777777874,0.005,0.33
8.605555555555611,0.025,0.33
8.608333333333348,0.04,0.35
8.611111111111086,0.04,0.36
8.613888888888823,0.04,0.345
8.61666666666656,0.03,0.315
8.619444444444525,0.03,0.31
8.622222222222263,0.06,0.325
8.625,0.07,0.355
8.627777777777737,0.085,0.335
8.630555555555475,0.075,0.335
8.63333333333344,0.05,0.32
8.636111111111177,0.045,0.315
8.638888888888914,0.05,0.315
8.641666666666652,0.065,0.335
8.644444444444389,0.085,0.335
8.647222222222126,0.09,0.325
8.650000000000091,0.08,0.305
8.652777777777828,0.08,0.305
8.655555555555566,0.09,0.315
8.658333333333303,0.09,0.335
8.66111111111104,0.095,0.345
8.663888888888778,0.095,0.325
8.666666666666742,0.12,0.31
8.66944444444448,0.14,0.31
8.672222222222217,0.12,0.325
8.674999999999955,0.1,0.34
8.677777777777692,0.085,0.335
8.68055555555543,0.085,0.32
8.683333333333394,0.1,0.305
8.686111111111131,0.095,0.315
8.688888888888869,0.12,0.325
8.691666666666606,0.13,0.345
8.69444444444457,0.14,0.335
8.697222222222308,0.155,0.315
8.700000000000045,0.135,0.305
8.702777777777783,0.115,0.315
8.70555555555552,0.115,0.33
8.708333333333258,0.14,0.335
8.711111111111222,0.16,0.335
8.71388888888896,0.17,0.315
8.716666666666697,0.16,0.31
8.719444444444434,0.15,0.335
8.722222222222172,0.195,0.35
8.724999999999909,0.22,0.365
8.727777777777874,0.225,0.35
8.730555555555611,0.21,0.335
8.733333333333348,0.2,0.335
8.736111111111086,0.195,0.35
8.738888888888823,0.235,0.365
8.74166666666656,0.245,0.375
8.744444444444525,0.255,0.365
8.747222222222263,0.225,0.37
8.75,0.205,0.355
8.752777777777737,0.2,0.38
8.755555555555475,0.22,0.395
8.75833333333344,0.245,0.41
8.761111111111177,0.265,0.405
8.763888888888914,0.265,0.395
8.766666666666652,0.275,0.375
8.769444444444389,0.3,0.39
8.772222222222126,0.32,0.415
8.775000000000091,0.325,0.43
8.777777777777828,0.315,0.43
8.780555555555566,0.315,0.42
8.783333333333303,0.31,0.425
8.78611111111104,0.32,0.435
8.788888888888778,0.335,0.445
8.791666666666742,0.345,0.45
8.79444444444448,0.36,0.44
8.797222222222217,0.36,0.44
8.799999999999955,0.37,0.435
8.802777777777692,0.375,0.46
8.80555555555543,0.38,0.47
8.808333333333394,0.38,0.48
8.811111111111131,0.4,0.47
8.813888888888869,0.395,0.46
8.816666666666606,0.395,0.47
8.81944444444457,0.4,0.475
8.822222222222308,0.405,0.495
8.825000000000045,0.445,0.515
8.827777777777783,0.455,0.495
8.83055555555552,0.445,0.495
8.833333333333258,0.44,0.495
8.836111111111222,0.435,0.48
8.83888888888896,0.455,0.495
8.841666666666697,0.48,0.505
8.844444444444434,0.5,0.5
8.847222222222172,0.5,0.485
8.849999999999909,0.485,0.495
8.852777777777874,0.48,0.505
8.855555555555611,0.485,0.515
8.858333333333348,0.49,0.52
8.861111111111086,0.475,0.515
8.863888888888823,0.475,0.505
8.86666666666656,0.455,0.495
8.869444444444525,0.46,0.505
8.872222222222263,0.475,0.515
8.875,0.485,0.515
8.877777777777737,0.5,0.515
8.880555555555475,0.52,0.505
8.88333333333344,0.52,0.505
8.886111111111177,0.51,0.495
8.888888888888914,0.5,0.505
8.891666666666652,0.48,0.51
8.894444444444389,0.495,0.505
8.897222222222126,0.5,0.51
8.900000000000091,0.51,0.495
8.902777777777828,0.495,0.5
8.905555555555566,0.51,0.51
8.908333333333303,0.515,0.495
8.91111111111104,0.5,0.51
8.913888888888778,0.48,0.51
8.916666666666742,0.445,0.505
8.91944444444448,0.44,0.5
8.922222222222217,0.465,0.495
8.924999999999955,0.49,0.52
8.927777777777692,0.51,0.52
8.93055555555543,0.49,0.51
8.933333333333394,0.48,0.5
8.936111111111131,0.465,0.49
8.938888888888869,0.465,0.5
8.941666666666606,0.46,0.515
8.94444444444457,0.485,0.53
8.947222222222308,0.49,0.515
8.950000000000045,0.48,0.515
8.952777777777783,0.46,0.52
8.95555555555552,0.47,0.52
8.958333333333258,0.505,0.535
8.961111111111222,0.525,0.54
8.96388888888896,0.51,0.54
8.966666666666697,0.495,0.555
8.969444444444434,0.495,0.545
8.972222222222172,0.5,0.56
8.974999999999909,0.53,0.565
8.977777777777874,0.56,0.585
8.980555555555611,0.56,0.6
8.983333333333348,0.55,0.595
8.986111111111086,0.545,0.585
8.988888888888823,0.56,0.6
8.99166666666656,0.58,0.63
8.994444444444525,0.595,0.64
8.997222222222263,0.59,0.645
9.0,0.585,0.63
9.002777777777737,0.605,0.63
9.005555555555475,0.645,0.66
9.00833333333344,0.66,0.68
9.011111111111177,0.675,0.69
9.013888888888914,0.685,0.7
9.016666666666652,0.68,0.69
9.019444444444389,0.675,0.695
9.022222222222126,0.67,0.72
9.025000000000091,0.665,0.735
9.027777777777828,0.675,0.745
9.030555555555566,0.67,0.72
9.033333333333303,0.67,0.725
9.03611111111104,0.685,0.73
9.038888888888778,0.69,0.75
9.041666666666742,0.71,0.765
9.04444444444448,0.73,0.77
9.047222222222217,0.725,0.755
9.049999999999955,0.72,0.75
9.052777777777692,0.705,0.735
9.05555555555543,0.695,0.77
9.058333333333394,0.715,0.79
9.061111111111131,0.72,0.78
9.063888888888869,0.735,0.76
9.066666666666606,0.725,0.745
9.06944444444457,0.72,0.74
9.072222222222308,0.73,0.745
9.075000000000045,0.745,0.755
9.077777777777783,0.75,0.745
9.08055555555552,0.725,0.725
9.083333333333258,0.68,0.7
9.086111111111222,0.655,0.705
9.08888888888896,0.655,0.72
9.091666666666697,0.66,0.72
9.094444444444434,0.68,0.71
9.097222222222172,0.67,0.67
9.099999999999909,0.645,0.66
9.102777777777874,0.625,0.64
9.105555555555611,0.615,0.635
9.108333333333348,0.615,0.635
9.111111111111086,0.585,0.605
9.113888888888823,0.535,0.58
9.11666666666656,0.495,0.56
9.119444444444525,0.465,0.545
9.122222222222263,0.415,0.545
9.125,0.365,0.555
9.127777777777737,0.34,0.53
9.130555555555475,0.27,0.525
9.13333333333344,0.18,0.485
9.136111111111177,0.11,0.48
9.138888888888914,0.085,0.47
9.141666666666652,0.085,0.48
9.144444444444389,0.1,0.47
9.147222222222126,0.095,0.48
9.150000000000091,0.09,0.485
9.152777777777828,0.075,0.505
9.155555555555566,0.05,0.525
9.158333333333303,0.0,0.54
9.16111111111104,-0.08,0.515
9.163888888888778,-0.16,0.495
9.166666666666742,-0.21,0.45
9.16944444444448,-0.26,0.415
9.172222222222217,-0.31,0.375
9.174999999999955,-0.385,0.345
9.177777777777692,-0.485,0.32
9.18055555555543,-0.59,0.28
9.183333333333394,-0.7,0.24
9.186111111111131,-0.785,0.205
9.188888888888869,-0.79,0.185
9.191666666666606,-0.755,0.165
9.19444444444457,-0.7,0.155
9.197222222222308,-0.675,0.125
9.200000000000045,-0.675,0.085
9.202777777777783,-0.71,0.015
9.20555555555552,-0.79,-0.1
9.208333333333258,-0.855,-0.2
9.211111111111222,-0.88,-0.32
9.21388888888896,-0.885,-0.425
9.216666666666697,-0.87,-0.525
9.219444444444434,-0.865,-0.595
9.222222222222172,-0.85,-0.64
9.224999999999909,-0.855,-0.645
9.227777777777874,-0.87,-0.655
9.230555555555611,-0.86,-0.68
9.233333333333348,-0.825,-0.7
9.236111111111086,-0.83,-0.725
9.238888888888823,-0.85,-0.73
9.24166666666656,-0.87,-0.72
9.244444444444525,-0.875,-0.735
9.247222222222263,-0.865,-0.73
9.25,-0.875,-0.77
9.252777777777737,-0.865,-0.77
9.255555555555475,-0.85,-0.78
9.25833333333344,-0.835,-0.775
9.261111111111177,-0.805,-0.77
9.263888888888914,-0.835,-0.79
9.266666666666652,-0.865,-0.82
9.269444444444389,-0.88,-0.82
9.272222222222126,-0.88,-0.82
9.275000000000091,-0.85,-0.8
9.277777777777828,-0.84,-0.805
9.280555555555566,-0.835,-0.805
9.283333333333303,-0.86,-0.83
9.28611111111104,-0.85,-0.835
9.288888888888778,-0.85,-0.82
9.291666666666742,-0.82,-0.81
9.29444444444448,-0.795,-0.82
9.297222222222217,-0.805,-0.845
9.299999999999955,-0.825,-0.855
9.302777777777692,-0.84,-0.86
9.30555555555543,-0.82,-0.845
9.308333333333394,-0.79,-0.825
9.311111111111131,-0.76,-0.835
9.313888888888869,-0.765,-0.835
9.316666666666606,-0.77,-0.865
9.31944444444457,-0.77,-0.855
9.322222222222308,-0.765,-0.84
9.325000000000045,-0.745,-0.835
9.327777777777783,-0.73,-0.83
9.33055555555552,-0.75,-0.845
9.333333333333258,-0.745,-0.85
9.336111111111222,-0.735,-0.855
9.33888888888896,-0.725,-0.84
9.341666666666697,-0.715,-0.825
9.344444444444434,-0.715,-0.83
9.347222222222172,-0.72,-0.835
9.349999999999909,-0.72,-0.86
9.352777777777874,-0.715,-0.845
9.355555555555611,-0.715,-0.825
9.358333333333348,-0.68,-0.81
9.361111111111086,-0.655,-0.805
9.363888888888823,-0.64,-0.82
9.36666666666656,-0.66,-0.83
9.369444444444525,-0.67,-0.81
9.372222222222263,-0.655,-0.785
9.375,-0.64,-0.76
9.377777777777737,-0.615,-0.76
9.380555555555475,-0.59,-0.76
9.38333333333344,-0.595,-0.77
9.386111111111177,-0.615,-0.74
9.388888888888914,-0.61,-0.71
9.391666666666652,-0.595,-0.695
9.394444444444389,-0.545,-0.705
9.397222222222126,-0.53,-0.705
9.400000000000091,-0.545,-0.7
9.402777777777828,-0.555,-0.695
9.405555555555566,-0.54,-0.65
9.408333333333303,-0.495,-0.64
9.41111111111104,-0.475,-0.645
9.413888888888778,-0.485,-0.635
9.416666666666742,-0.47,-0.64
9.41944444444448,-0.47,-0.615
9.422222222222217,-0.455,-0.59
9.424999999999955,-0.44,-0.57
9.427777777777692,-0.42,-0.58
9.43055555555543,-0.4,-0.58
9.433333333333394,-0.405,-0.58
9.436111111111131,-0.41,-0.54
9.438888888888869,-0.39,-0.52
9.441666666666606,-0.365,-0.495
9.44444444444457,-0.34,-0.49
9.447222222222308,-0.335,-0.505
9.450000000000045,-0.34,-0.485
9.452777777777783,-0.335,-0.475
9.45555555555552,-0.315,-0.445
9.458333333333258,-0.305,-0.43
9.461111111111222,-0.27,-0.43
9.46388888888896,-0.27,-0.415
9.466666666666697,-0.26,-0.41
9.469444444444434,-0.265,-0.39
9.472222222222172,-0.245,-0.37
9.474999999999909,-0.245,-0.345
9.477777777777874,-0.24,-0.335
9.480555555555611,-0.225,-0.345
9.483333333333348,-0.22,-0.345
9.486111111111086,-0.225,-0.33
9.488888888888823,-0.195,-0.29
9.49166666666656,-0.18,-0.265
9.494444444444525,-0.16,-0.255
9.497222222222263,-0.155,-0.265
9.5,-0.155,-0.265
9.502777777777737,-0.15,-0.255
9.505555555555475,-0.14,-0.225
9.50833333333344,-0.12,-0.205
9.511111111111177,-0.115,-0.205
9.513888888888914,-0.105,-0.205
9.516666666666652,-0.105,-0.2
9.519444444444389,-0.105,-0.185
9.522222222222126,-0.125,-0.15
9.525000000000091,-0.11,-0.14
9.527777777777828,-0.07,-0.13
9.530555555555566,-0.065,-0.135
9.533333333333303,-0.08,-0.125
9.53611111111104,-0.085,-0.115
9.538888888888778,-0.08,-0.09
9.541666666666742,-0.055,-0.07
9.54444444444448,-0.055,-0.06
9.547222222222217,-0.045,-0.06
9.549999999999955,-0.05,-0.065
9.552777777777692,-0.035,-0.045
9.55555555555543,-0.04,-0.015
9.558333333333394,-0.02,0.0
9.561111111111131,0.0,0.005
9.563888888888869,-0.005,-0.005
9.566666666666606,-0.015,-0.005
9.56944444444457,-0.015,0.02
9.572222222222308,-0.005,0.05
9.575000000000045,0.01,0.055
9.577777777777783,0.005,0.075
9.58055555555552,0.015,0.05
9.583333333333258,0.0,0.065
9.586111111111222,0.0,0.075
9.58888888888896,0.015,0.1
9.591666666666697,0.035,0.12
9.594444444444434,0.045,0.13
9.597222222222172,0.045,0.115
9.599999999999909,0.02,0.105
9.602777777777874,0.01,0.13
9.605555555555611,0.01,0.155
9.608333333333348,0.02,0.165
9.611111111111086,0.03,0.17
9.613888888888823,0.045,0.155
9.61666666666656,0.04,0.16
9.619444444444525,0.035,0.17
9.622222222222263,0.055,0.205
9.625,0.075,0.22
9.627777777777737,0.075,0.22
9.630555555555475,0.07,0.185
9.63333333333344,0.055,0.19
9.636111111111177,0.05,0.205
9.638888888888914,0.06,0.23
9.641666666666652,0.085,0.24
9.644444444444389,0.095,0.235
9.647222222222126,0.09,0.245
9.650000000000091,0.08,0.225
9.652777777777828,0.08,0.23
9.655555555555566,0.085,0.25
9.658333333333303,0.09,0.265
9.66111111111104,0.09,0.26
9.663888888888778,0.085,0.25
9.666666666666742,0.06,0.25
9.66944444444448,0.08,0.255
9.672222222222217,0.085,0.275
9.674999999999955,0.105,0.29
9.677777777777692,0.1,0.28
9.68055555555543,0.09,0.28
9.683333333333394,0.075,0.265
9.686111111111131,0.07,0.285
9.688888888888869,0.085,0.295
9.691666666666606,0.1,0.32
9.69444444444457,0.105,0.315
9.697222222222308,0.12,0.305
9.700000000000045,0.105,0.3
9.702777777777783,0.095,0.3
9.70555555555552,0.1,0.32
9.708333333333258,0.12,0.335
9.711111111111222,0.135,0.325
9.71388888888896,0.115,0.315
9.716666666666697,0.105,0.3
9.719444444444434,0.095,0.31
9.722222222222172,0.11,0.335
9.724999999999909,0.12,0.345
9.727777777777874,0.145,0.335
9.730555555555611,0.135,0.325
9.733333333333348,0.105,0.32
9.736111111111086,0.1,0.325
9.738888888888823,0.085,0.34
9.74166666666656,0.105,0.35
9.744444444444525,0.13,0.355
9.747222222222263,0.135,0.34
9.75,0.125,0.34
9.752777777777737,0.11,0.345
9.755555555555475,0.12,0.355
9.75833333333344,0.145,0.365
9.761111111111177,0.15,0.36
9.763888888888914,0.115,0.35
9.766666666666652,0.115,0.35
9.769444444444389,0.09,0.355
9.772222222222126,0.095,0.37
9.775000000000091,0.095,0.385
9.777777777777828,0.1,0.37
9.780555555555566,0.12,0.355
9.783333333333303,0.1,0.35
9.78611111111104,0.095,0.365
9.788888888888778,0.095,0.39
9.791666666666742,0.11,0.39
9.79444444444448,0.12,0.375
9.797222222222217,0.125,0.375
9.799999999999955,0.1,0.375
9.802777777777692,0.1,0.37
9.80555555555543,0.12,0.39
9.808333333333394,0.135,0.395
9.811111111111131,0.15,0.38
9.813888888888869,0.14,0.38
9.816666666666606,0.13,0.375
9.81944444444457,0.115,0.375
9.822222222222308,0.11,0.385
9.825000000000045,0.13,0.395
9.827777777777783,0.135,0.405
9.83055555555552,0.12,0.385
9.833333333333258,0.12,0.38
9.836111111111222,0.135,0.39
9.83888888888896,0.135,0.405
9.841666666666697,0.14,0.4
9.844444444444434,0.14,0.4
9.847222222222172,0.135,0.41
9.849999999999909,0.12,0.395
9.852777777777874,0.105,0.385
9.855555555555611,0.12,0.395
9.858333333333348,0.115,0.41
9.861111111111086,0.13,0.405
9.863888888888823,0.14,0.41
9.86666666666656,0.135,0.405
9.869444444444525,0.115,0.395
9.872222222222263,0.12,0.405
9.875,0.14,0.415
9.877777777777737,0.155,0.425
9.880555555555475,0.155,0.425
9.88333333333344,0.14,0.425
9.886111111111177,0.135,0.415
9.888888888888914,0.145,0.415
9.891666666666652,0.155,0.425
9.894444444444389,0.17,0.445
9.897222222222126,0.16,0.425
9.900000000000091,0.135,0.42
9.902777777777828,0.11,0.415
9.905555555555566,0.11,0.435
9.908333333333303,0.12,0.445
9.91111111111104,0.13,0.455
9.913888888888778,0.14,0.45
9.916666666666742,0.145,0.435
9.91944444444448,0.155,0.42
9.922222222222217,0.15,0.435
9.924999999999955,0.15,0.445
9.927777777777692,0.15,0.45
9.93055555555543,0.13,0.445
9.933333333333394,0.13,0.435
9.936111111111131,0.125,0.425
9.938888888888869,0.13,0.43
9.941666666666606,0.135,0.46
9.94444444444457,0.13,0.46
9.947222222222308,0.125,0.455
9.950000000000045,0.13,0.425
9.952777777777783,0.165,0.425
9.95555555555552,0.18,0.44
9.958333333333258,0.195,0.46
9.961111111111222,0.215,0.46
9.96388888888896,0.225,0.455
9.966666666666697,0.19,0.42
9.969444444444434,0.165,0.42
9.972222222222172,0.105,0.44
9.974999999999909,0.1,0.455
9.977777777777874,0.08,0.46
9.980555555555611,0.08,0.45
9.983333333333348,0.09,0.435
9.986111111111086,0.105,0.445
9.988888888888823,0.135,0.455
9.99166666666656,0.155,0.47
9.994444444444525,0.16,0.475
9.997222222222263,0.155,0.445
10.0,0.14,0.43
10.002777777777737,0.12,0.44
10.005555555555475,0.13,0.46
10.00833333333344,0.13,0.47
10.011111111111177,0.14,0.475
10.013888888888914,0.135,0.45
10.016666666666652,0.135,0.435
10.019444444444389,0.15,0.445
10.022222222222126,0.14,0.465
10.025000000000091,0.135,0.485
10.027777777777828,0.14,0.48
10.030555555555566,0.14,0.455
10.033333333333303,0.14,0.455
10.03611111111104,0.14,0.465
10.038888888888778,0.175,0.48
10.041666666666742,0.175,0.465
10.04444444444448,0.165,0.47
10.047222222222217,0.155,0.465
10.049999999999955,0.135,0.455
10.052777777777692,0.125,0.47
10.05555555555543,0.135,0.47
10.058333333333394,0.155,0.48
10.061111111111131,0.17,0.47
10.063888888888869,0.17,0.47
10.066666666666606,0.165,0.475
10.06944444444457,0.145,0.485
10.072222222222308,0.13,0.49
10.075000000000045,0.14,0.49
10.077777777777783,0.155,0.49
10.08055555555552,0.165,0.485
10.083333333333258,0.15,0.485
10.086111111111222,0.145,0.49
10.08888888888896,0.155,0.495
10.091666666666697,0.175,0.5
10.094444444444434,0.19,0.495
10.097222222222172,0.175,0.495
10.099999999999909,0.145,0.49
10.102777777777874,0.115,0.485
10.105555555555611,0.13,0.495
10.108333333333348,0.14,0.505
10.111111111111086,0.14,0.51
10.113888888888823,0.135,0.51
10.11666666666656,0.13,0.495
10.119444444444525,0.13,0.49
10.122222222222263,0.14,0.5
10.125,0.145,0.535
10.127777777777737,0.135,0.525
10.130555555555475,0.125,0.515
10.13333333333344,0.105,0.495
10.136111111111177,0.13,0.505
10.138888888888914,0.135,0.53
10.141666666666652,0.145,0.54
10.144444444444389,0.14,0.525
10.147222222222126,0.135,0.515
10.150000000000091,0.13,0.515
10.152777777777828,0.13,0.515
10.155555555555566,0.12,0.54
10.158333333333303,0.12,0.535
10.16111111111104,0.12,0.53
10.163888888888778,0.12,0.535
10.166666666666742,0.115,0.54
10.16944444444448,0.1,0.535
10.172222222222217,0.115,0.535
10.174999999999955,0.13,0.54
10.177777777777692,0.135,0.53
10.18055555555543,0.115,0.54
10.183333333333394,0.12,0.535
10.186111111111131,0.105,0.545
10.188888888888869,0.125,0.55
10.191666666666606,0.13,0.565
10.19444444444457,0.13,0.55
10.197222222222308,0.125,0.545
10.200000000000045,0.13,0.555
10.202777777777783,0.125,0.55
10.20555555555552,0.12,0.555
10.208333333333258,0.12,0.565
10.211111111111222,0.1,0.56
10.21388888888896,0.09,0.57
10.216666666666697,0.1,0.57
10.219444444444434,0.095,0.555
10.222222222222172,0.1,0.56
10.224999999999909,0.11,0.565
10.227777777777874,0.12,0.58
10.230555555555611,0.105,0.58
10.233333333333348,0.11,0.575
10.236111111111086,0.105,0.56
10.238888888888823,0.095,0.565
10.24166666666656,0.115,0.585
10.244444444444525,0.12,0.59
10.247222222222263,0.115,0.585
10.25,0.11,0.56
10.252777777777737,0.105,0.56
10.255555555555475,0.11,0.575
10.25833333333344,0.12,0.59
10.261111111111177,0.12,0.6
10.263888888888914,0.11,0.59
10.266666666666652,0.09,0.57
10.269444444444389,0.08,0.57
10.272222222222126,0.08,0.575
10.275000000000091,0.075,0.6
10.277777777777828,0.085,0.6
10.280555555555566,0.09,0.59
10.283333333333303,0.085,0.565
10.28611111111104,0.07,0.565
10.288888888888778,0.075,0.58
10.291666666666742,0.095,0.605
10.29444444444448,0.095,0.61
10.297222222222217,0.09,0.605
10.299999999999955,0.07,0.585
10.302777777777692,0.07,0.57
10.30555555555543,0.075,0.585
10.308333333333394,0.095,0.6
10.311111111111131,0.095,0.605
10.313888888888869,0.09,0.595
10.316666666666606,0.085,0.58
10.31944444444457,0.07,0.585
10.322222222222308,0.085,0.6
10.325000000000045,0.085,0.615
10.327777777777783,0.08,0.605
10.33055555555552,0.09,0.595
10.333333333333258,0.07,0.59
10.336111111111222,0.075,0.58
10.33888888888896,0.075,0.595
10.341666666666697,0.095,0.61
10.344444444444434,0.1,0.6
10.347222222222172,0.085,0.595
10.349999999999909,0.06,0.58
10.352777777777874,0.045,0.59
10.355555555555611,0.045,0.6
10.358333333333348,0.065,0.615
10.361111111111086,0.06,0.62
10.363888888888823,0.07,0.6
10.36666666666656,0.05,0.59
10.369444444444525,0.07,0.595
10.372222222222263,0.055,0.61
10.375,0.065,0.625
10.377777777777737,0.08,0.61
10.380555555555475,0.06,0.6
10.38333333333344,0.035,0.575
10.386111111111177,0.035,0.59
10.388888888888914,0.035,0.61
10.391666666666652,0.055,0.62
10.394444444444389,0.05,0.615
10.397222222222126,0.06,0.59
10.400000000000091,0.055,0.59
10.402777777777828,0.055,0.575
10.405555555555566,0.06,0.59
10.408333333333303,0.065,0.605
10.41111111111104,0.08,0.6
10.413888888888778,0.065,0.56
10.416666666666742,0.055,0.555
10.41944444444448,0.045,0.555
10.422222222222217,0.06,0.565
10.424999999999955,0.085,0.58
10.427777777777692,0.085,0.57
10.43055555555543,0.095,0.55
10.433333333333394,0.07,0.54
10.436111111111131,0.035,0.545
10.438888888888869,0.02,0.56
10.441666666666606,0.01,0.56
10.44444444444457,-0.005,0.525
10.447222222222308,-0.035,0.485
10.450000000000045,-0.075,0.465
10.452777777777783,-0.13,0.455
10.45555555555552,-0.135,0.435
10.458333333333258,-0.18,0.43
10.461111111111222,-0.22,0.38
10.46388888888896,-0.275,0.325
10.466666666666697,-0.32,0.265
10.469444444444434,-0.365,0.23
10.472222222222172,-0.425,0.21
10.474999999999909,-0.545,0.205
10.477777777777874,-0.705,0.185
10.480555555555611,-0.9,0.17
10.483333333333348,-1.075,0.165
10.486111111111086,-1.175,0.175
10.488888888888823,-1.18,0.21
10.49166666666656,-1.145,0.25
10.494444444444525,-1.1,0.285
10.497222222222263,-1.06,0.335
10.5,-1.015,0.39
10.502777777777737,-0.925,0.465
10.505555555555475,-0.81,0.555
10.50833333333344,-0.715,0.64
10.511111111111177,-0.635,0.7
10.513888888888914,-0.565,0.755
10.516666666666652,-0.51,0.81
10.519444444444389,-0.46,0.88
10.522222222222126,-0.41,0.91
10.525000000000091,-0.345,0.93
10.527777777777828,-0.3,0.915
10.530555555555566,-0.245,0.88
10.533333333333303,-0.175,0.84
10.53611111111104,-0.105,0.82
10.538888888888778,-0.015,0.8
10.541666666666742,0.04,0.8
10.54444444444448,0.085,0.775
10.547222222222217,0.085,0.745
10.549999999999955,0.115,0.725
10.552777777777692,0.11,0.72
10.55555555555543,0.13,0.745
10.558333333333394,0.15,0.74
10.561111111111131,0.15,0.73
10.563888888888869,0.125,0.71
10.566666666666606,0.13,0.7
10.56944444444457,0.135,0.695
10.572222222222308,0.155,0.71
10.575000000000045,0.17,0.74
10.577777777777783,0.175,0.735
10.58055555555552,0.165,0.715
10.583333333333258,0.15,0.69
10.586111111111222,0.145,0.695
10.58888888888896,0.17,0.725
10.591666666666697,0.19,0.74
10.594444444444434,0.185,0.735
10.597222222222172,0.195,0.71
10.599999999999909,0.195,0.71
10.602777777777874,0.185,0.715
10.605555555555611,0.18,0.735
10.608333333333348,0.205,0.74
10.611111111111086,0.215,0.745
10.613888888888823,0.21,0.725
10.61666666666656,0.205,0.71
10.619444444444525,0.21,0.72
10.622222222222263,0.22,0.735
10.625,0.23,0.75
10.627777777777737,0.235,0.735
10.630555555555475,0.21,0.735
10.63333333333344,0.215,0.725
10.636111111111177,0.22,0.725
10.638888888888914,0.22,0.73
10.641666666666652,0.225,0.775
10.644444444444389,0.225,0.765
10.647222222222126,0.225,0.74
10.650000000000091,0.225,0.735
10.652777777777828,0.23,0.73
10.655555555555566,0.26,0.75
10.658333333333303,0.27,0.77
10.66111111111104,0.27,0.76
10.663888888888778,0.27,0.745
10.666666666666742,0.26,0.735
10.66944444444448,0.275,0.73
10.672222222222217,0.285,0.75
10.674999999999955,0.29,0.77
10.677777777777692,0.3,0.77
10.68055555555543,0.295,0.76
10.683333333333394,0.285,0.745
10.686111111111131,0.29,0.735
10.688888888888869,0.285,0.755
10.691666666666606,0.275,0.795
10.69444444444457,0.29,0.795
10.697222222222308,0.265,0.78
10.700000000000045,0.27,0.77
10.702777777777783,0.285,0.76
10.70555555555552,0.34,0.79
10.708333333333258,0.355,0.805
10.711111111111222,0.355,0.82
10.71388888888896,0.36,0.8
10.716666666666697,0.34,0.79
10.719444444444434,0.325,0.785
10.722222222222172,0.305,0.805
10.724999999999909,0.345,0.825
10.727777777777874,0.365,0.835
10.730555555555611,0.375,0.83
10.733333333333348,0.36,0.815
10.736111111111086,0.37,0.81
10.738888888888823,0.36,0.82
10.74166666666656,0.38,0.855
10.744444444444525,0.39,0.86
10.747222222222263,0.4,0.865
10.75,0.425,0.845
10.752777777777737,0.43,0.845
10.755555555555475,0.435,0.87
10.75833333333344,0.43,0.885
10.761111111111177,0.425,0.885
10.763888888888914,0.42,0.88
10.766666666666652,0.41,0.865
10.769444444444389,0.43,0.865
10.772222222222126,0.455,0.89
10.775000000000091,0.46,0.915
10.777777777777828,0.46,0.92
10.780555555555566,0.48,0.905
10.783333333333303,0.465,0.885
10.78611111111104,0.48,0.885
10.788888888888778,0.48,0.91
10.791666666666742,0.495,0.925
10.79444444444448,0.5,0.925
10.797222222222217,0.48,0.935
10.799999999999955,0.485,0.915
10.802777777777692,0.5,0.91
10.80555555555543,0.505,0.93
10.808333333333394,0.51,0.935
10.811111111111131,0.5,0.935
10.813888888888869,0.505,0.94
10.816666666666606,0.495,0.93
10.81944444444457,0.48,0.925
10.822222222222308,0.505,0.93
10.825000000000045,0.535,0.96
10.827777777777783,0.555,0.96
10.83055555555552,0.59,0.96
10.833333333333258,0.595,0.935
10.836111111111222,0.595,0.935
10.83888888888896,0.585,0.935
10.841666666666697,0.59,0.955
10.844444444444434,0.585,0.955
10.847222222222172,0.59,0.935
10.849999999999909,0.58,0.91
10.852777777777874,0.61,0.895
10.855555555555611,0.61,0.92
10.858333333333348,0.63,0.925
10.861111111111086,0.63,0.93
10.863888888888823,0.62,0.915
10.86666666666656,0.61,0.9
10.869444444444525,0.615,0.885
10.872222222222263,0.615,0.895
10.875,0.67,0.905
10.877777777777737,0.69,0.905
10.880555555555475,0.69,0.9
10.88333333333344,0.655,0.885
10.886111111111177,0.66,0.87
10.888888888888914,0.64,0.885
10.891666666666652,0.66,0.89
10.894444444444389,0.67,0.91
10.897222222222126,0.665,0.895
10.900000000000091,0.685,0.895
10.902777777777828,0.69,0.88
10.905555555555566,0.705,0.88
10.908333333333303,0.725,0.9
10.91111111111104,0.745,0.9
10.913888888888778,0.745,0.895
10.916666666666742,0.73,0.885
10.91944444444448,0.725,0.89
10.922222222222217,0.71,0.905
10.924999999999955,0.725,0.93
10.927777777777692,0.72,0.935
10.93055555555543,0.73,0.94
10.933333333333394,0.725,0.92
10.936111111111131,0.75,0.91
10.938888888888869,0.79,0.935
10.941666666666606,0.83,0.97
10.94444444444457,0.83,0.975
10.947222222222308,0.805,0.97
10.950000000000045,0.77,0.965
10.952777777777783,0.795,0.98
10.95555555555552,0.835,1.005
10.958333333333258,0.87,1.03
10.961111111111222,0.895,1.04
10.96388888888896,0.875,1.025
10.966666666666697,0.865,1.02
10.969444444444434,0.865,1.02
10.972222222222172,0.895,1.04
10.974999999999909,0.895,1.07
10.977777777777874,0.885,1.09
10.980555555555611,0.86,1.09
10.983333333333348,0.875,1.075
10.986111111111086,0.915,1.08
10.988888888888823,0.955,1.1
10.99166666666656,0.97,1.12
10.994444444444525,0.955,1.13
10.997222222222263,0.925,1.145
11.0,0.915,1.13
11.002777777777737,0.925,1.13
11.005555555555475,0.97,1.145
11.00833333333344,1.01,1.165
11.011111111111177,1.025,1.17
11.013888888888914,1.0,1.165
11.016666666666652,0.995,1.15
11.019444444444389,1.005,1.13
11.022222222222126,1.065,1.155
11.025000000000091,1.075,1.17
11.027777777777828,1.055,1.185
11.030555555555566,1.02,1.17
11.033333333333303,1.01,1.145
11.03611111111104,1.04,1.135
11.038888888888778,1.065,1.165
11.041666666666742,1.09,1.165
11.04444444444448,1.075,1.165
11.047222222222217,1.05,1.14
11.049999999999955,1.04,1.125
11.052777777777692,1.04,1.105
11.05555555555543,1.09,1.12
11.058333333333394,1.1,1.12
11.061111111111131,1.1,1.115
11.063888888888869,1.07,1.095
11.066666666666606,1.06,1.075
11.06944444444457,1.05,1.065
11.072222222222308,1.08,1.065
11.075000000000045,1.085,1.06
11.077777777777783,1.055,1.055
11.08055555555552,1.01,1.045
11.083333333333258,0.985,1.01
11.086111111111222,0.975,1.005
11.08888888888896,1.005,0.985
11.091666666666697,1.02,0.99
11.094444444444434,1.01,0.975
11.097222222222172,0.97,0.955
11.099999999999909,0.905,0.93
11.102777777777874,0.86,0.905
11.105555555555611,0.835,0.88
11.108333333333348,0.845,0.89
11.111111111111086,0.855,0.89
11.113888888888823,0.845,0.865
11.11666666666656,0.8,0.835
