time,MLII,V1
0,0.02,0.095
0.002777778,0.04,0.095
0.005555556,0.06,0.095
0.008333333,0.055,0.095
0.011111111111111112,0.07,0.095
0.013888888888888888,0.095,0.095
0.016666666666666666,0.105,0.095
0.019444444444444445,0.11,0.095
0.022222222222222223,0.12,0.095
0.025,0.115,0.11
0.027777777777777773,0.12,0.1
0.030555555555555558,0.145,0.085
0.033333333,0.165,0.05
0.036111111,0.18,0.06
0.038888889,0.195,0.09
0.041666667,0.2,0.095
0.044444444444444446,0.22,0.095
0.047222222,0.25,0.07
0.05,0.27,0.045
0.052777778,0.265,0.055
0.055555556,0.26,0.065
0.058333333333333334,0.27,0.09
0.061111111,0.28,0.09
0.063888889,0.27,0.065
0.066666667,0.25,0.06
0.069444444,0.195,0.055
0.072222222,0.175,0.065
0.075,0.14,0.085
0.077777778,0.1,0.085
0.080555556,0.08,0.035
0.083333333,0.05,0.01
0.086111111,0.065,-0.045
0.088888889,0.04,-0.07
0.091666667,0.025,-0.075
0.094444444,0.035,-0.115
0.097222222,0.06,-0.175
0.1,0.075,-0.235
0.10277777777777776,0.075,-0.265
0.10555555555555556,0.07,-0.25
0.10833333333333334,0.075,-0.22
0.1111111111111111,0.035,-0.19
0.11388888888888889,0,-0.18
0.11666666666666668,-0.05,-0.18
0.11944444444444445,-0.085,-0.185
0.1222222222222222,-0.13,-0.15
0.125,-0.185,-0.06
0.12777777777777777,-0.25,0.115
0.13055555555555556,-0.25,0.375
0.13333333333333333,-0.27,0.675
0.1361111111111111,-0.26,0.94
0.1388888888888889,-0.285,1.08
0.14166666666666666,-0.335,1.135
0.14444444444444443,-0.39,1.185
0.14722222222222223,-0.4,1.225
0.15,-0.41,1.28
0.1527777777777778,-0.45,1.305
0.15555555555555556,-0.495,1.305
0.15833333333333333,-0.53,1.29
0.16111111111111112,-0.555,1.22
0.1638888888888889,-0.565,1.135
0.16666666666666666,-0.595,1.035
0.16944444444444445,-0.625,0.965
0.17222222222222222,-0.685,0.9
0.175,-0.73,0.895
0.17777777777777778,-0.75,0.895
0.18055555555555558,-0.75,0.895
0.1833333333333333,-0.75,0.905
0.18611111111111112,-0.75,0.91
0.18888888888888888,-0.78,0.965
0.19166666666666668,-0.8,1.01
0.19444444444444448,-0.81,1.04
0.19722222222222222,-0.81,1.07
0.2,-0.81,1.07
0.20277777777777778,-0.835,1.075
0.20555555555555557,-0.865,1.065
0.20833333333333331,-0.865,1.025
0.2111111111111111,-0.87,0.945
0.21388888888888888,-0.845,0.845
0.21666666666666667,-0.795,0.725
0.21944444444444444,-0.775,0.59
0.2222222222222222,-0.77,0.445
0.225,-0.785,0.365
0.22777777777777777,-0.79,0.255
0.2305555555555556,-0.74,0.195
0.2333333333333333,-0.705,0.145
0.2361111111111111,-0.68,0.145
0.2388888888888889,-0.655,0.125
0.24166666666666664,-0.645,0.105
0.24444444444444444,-0.605,0.085
0.24722222222222223,-0.55,0.06
0.25,-0.49,0.045
0.25277777777777777,-0.44,0.06
0.2555555555555556,-0.405,0.07
0.25833333333333336,-0.38,0.07
0.2611111111111111,-0.345,0.035
0.2638888888888889,-0.29,0.01
0.26666666666666666,-0.275,0.01
0.26944444444444443,-0.265,0.025
0.2722222222222222,-0.26,0.05
0.275,-0.25,0.04
0.2777777777777778,-0.225,0.035
0.28055555555555556,-0.2,0
0.2833333333333333,-0.19,-0.005
0.2861111111111111,-0.16,0.015
0.28888888888888886,-0.145,0.045
0.2916666666666667,-0.14,0.045
0.29444444444444445,-0.14,0.035
0.2972222222222222,-0.11,0
0.3,-0.085,-0.015
0.30277777777777776,-0.085,0
0.3055555555555556,-0.075,0.015
0.30833333333333335,-0.06,0.04
0.3111111111111111,-0.05,0.035
0.3138888888888889,-0.035,0.02
0.31666666666666665,0,-0.01
0.3194444444444444,0.015,0
0.32222222222222224,0.03,0.015
0.325,0.035,0.045
0.3277777777777778,0.065,0.055
0.33055555555555555,0.115,0.03
0.3333333333333333,0.14,0
0.33611111111111114,0.15,-0.005
0.3388888888888889,0.13,0.025
0.3416666666666667,0.11,0.05
0.34444444444444444,0.09,0.045
0.3472222222222222,0.13,0.03
0.35,0.15,0.01
0.3527777777777778,0.17,0.01
0.35555555555555557,0.17,0.03
0.35833333333333334,0.18,0.035
0.3611111111111111,0.195,0.055
0.3638888888888889,0.22,0.055
0.3666666666666666,0.255,0.025
0.36944444444444446,0.255,0.02
0.37222222222222223,0.235,0.035
0.375,0.21,0.075
0.37777777777777777,0.175,0.08
0.38055555555555554,0.17,0.075
0.38333333333333336,0.16,0.045
0.3861111111111112,0.17,0.045
0.3888888888888889,0.135,0.07
0.39166666666666666,0.1,0.1
0.39444444444444443,0.06,0.115
0.3972222222222222,0.065,0.09
0.4,0.07,0.09
0.4027777777777778,0.065,0.085
0.40555555555555556,0.07,0.11
0.4083333333333333,0.055,0.125
0.4111111111111111,0.055,0.14
0.41388888888888886,0.08,0.14
0.4166666666666667,0.1,0.125
0.41944444444444445,0.09,0.13
0.4222222222222222,0.065,0.14
0.425,-0.01,0.165
0.42777777777777776,-0.05,0.18
0.4305555555555556,-0.11,0.185
0.43333333333333335,-0.14,0.175
0.4361111111111112,-0.18,0.18
0.4388888888888889,-0.215,0.18
0.4416666666666666,-0.245,0.195
0.4444444444444444,-0.26,0.215
0.44722222222222224,-0.24,0.22
0.45,-0.245,0.215
0.4527777777777778,-0.29,0.215
0.45555555555555555,-0.34,0.22
0.4583333333333333,-0.38,0.23
0.4611111111111112,-0.42,0.245
0.4638888888888889,-0.45,0.255
0.4666666666666667,-0.48,0.26
0.46944444444444444,-0.54,0.26
0.4722222222222222,-0.575,0.265
0.475,-0.61,0.275
0.4777777777777778,-0.66,0.295
0.48055555555555557,-0.695,0.29
0.48333333333333334,-0.72,0.29
0.4861111111111111,-0.765,0.295
0.4888888888888889,-0.815,0.295
0.4916666666666666,-0.845,0.305
0.49444444444444446,-0.835,0.315
0.49722222222222223,-0.83,0.32
0.5,-0.825,0.315
0.5027777777777778,-0.805,0.32
0.5055555555555555,-0.82,0.32
0.5083333333333333,-0.84,0.34
0.5111111111111111,-0.88,0.35
0.5138888888888888,-0.895,0.36
0.5166666666666667,-0.865,0.345
0.5194444444444445,-0.865,0.34
0.5222222222222223,-0.855,0.35
0.525,-0.84,0.37
0.5277777777777778,-0.83,0.375
0.5305555555555556,-0.815,0.37
0.5333333333333333,-0.805,0.37
0.5361111111111111,-0.795,0.38
0.5388888888888889,-0.805,0.385
0.5416666666666666,-0.82,0.39
0.5444444444444444,-0.81,0.405
0.5472222222222223,-0.765,0.395
0.55,-0.715,0.405
0.5527777777777778,-0.665,0.41
0.5555555555555556,-0.655,0.4
0.5583333333333333,-0.645,0.405
0.5611111111111111,-0.62,0.42
0.5638888888888889,-0.575,0.415
0.5666666666666667,-0.525,0.425
0.5694444444444444,-0.485,0.43
0.5722222222222222,-0.44,0.435
0.575,-0.385,0.43
0.5777777777777777,-0.355,0.44
0.5805555555555556,-0.305,0.435
0.5833333333333334,-0.26,0.45
0.5861111111111111,-0.235,0.46
0.5888888888888889,-0.235,0.46
0.5916666666666667,-0.215,0.465
0.5944444444444444,-0.18,0.46
0.5972222222222222,-0.13,0.47
0.6,-0.09,0.48
0.6027777777777777,-0.08,0.49
0.6055555555555555,-0.09,0.495
0.6083333333333333,-0.08,0.49
0.6111111111111112,-0.05,0.49
0.6138888888888889,-0.005,0.5
0.6166666666666667,0.025,0.51
0.6194444444444445,0.035,0.525
0.6222222222222222,0.05,0.53
0.625,0.07,0.535
0.6277777777777778,0.075,0.54
0.6305555555555555,0.11,0.55
0.6333333333333333,0.145,0.57
0.6361111111111111,0.175,0.565
0.6388888888888888,0.205,0.585
0.6416666666666667,0.215,0.58
0.6444444444444445,0.205,0.58
0.6472222222222223,0.235,0.58
0.65,0.28,0.6
0.6527777777777778,0.28,0.61
0.6555555555555556,0.295,0.63
0.6583333333333333,0.325,0.635
0.6611111111111111,0.385,0.615
0.6638888888888889,0.445,0.625
0.6666666666666666,0.495,0.62
0.6694444444444444,0.51,0.65
0.6722222222222223,0.505,0.66
0.675,0.455,0.645
0.6777777777777778,0.4,0.635
0.6805555555555556,0.355,0.64
0.6833333333333333,0.32,0.63
0.6861111111111111,0.28,0.655
0.6888888888888889,0.23,0.66
0.6916666666666667,0.195,0.655
0.6944444444444444,0.175,0.645
0.6972222222222222,0.175,0.63
0.7,0.185,0.64
0.7027777777777777,0.15,0.645
0.7055555555555556,0.095,0.65
0.7083333333333334,0.09,0.64
0.7111111111111111,0.11,0.605
0.7138888888888889,0.15,0.61
0.7166666666666667,0.165,0.61
0.7194444444444444,0.145,0.63
0.7222222222222222,0.08,0.64
0.725,-0.005,0.635
0.7277777777777777,-0.045,0.625
0.7305555555555555,-0.085,0.61
0.7333333333333333,-0.075,0.61
0.7361111111111112,-0.11,0.635
0.7388888888888889,-0.19,0.65
0.7416666666666667,-0.26,0.64
0.7444444444444445,-0.305,0.63
0.7472222222222222,-0.285,0.62
0.75,-0.29,0.61
0.7527777777777778,-0.32,0.625
0.7555555555555555,-0.38,0.64
0.7583333333333333,-0.45,0.63
0.7611111111111111,-0.52,0.625
0.7638888888888888,-0.545,0.59
0.7666666666666667,-0.55,0.59
0.7694444444444445,-0.58,0.605
0.7722222222222223,-0.645,0.62
0.775,-0.72,0.625
0.7777777777777778,-0.805,0.605
0.7805555555555556,-0.84,0.555
0.7833333333333333,-0.83,0.525
0.7861111111111111,-0.83,0.515
0.7888888888888889,-0.835,0.525
0.7916666666666666,-0.855,0.51
0.7944444444444444,-0.89,0.475
0.7972222222222223,-0.91,0.41
0.8,-0.89,0.365
0.8027777777777778,-0.885,0.375
0.8055555555555556,-0.87,0.395
0.8083333333333333,-0.89,0.435
0.8111111111111111,-0.915,0.45
0.8138888888888889,-0.905,0.465
0.8166666666666667,-0.885,0.475
0.8194444444444444,-0.87,0.49
0.8222222222222222,-0.885,0.53
0.825,-0.89,0.565
0.8277777777777777,-0.87,0.565
0.8305555555555556,-0.825,0.56
0.8333333333333334,-0.77,0.515
0.8361111111111111,-0.79,0.52
0.8388888888888889,-0.825,0.5
0.8416666666666667,-0.855,0.52
0.8444444444444444,-0.81,0.535
0.8472222222222222,-0.705,0.555
0.85,-0.67,0.555
0.8527777777777777,-0.68,0.54
0.8555555555555555,-0.68,0.535
0.8583333333333333,-0.625,0.505
0.8611111111111112,-0.57,0.455
0.8638888888888889,-0.5,0.395
0.8666666666666667,-0.455,0.355
0.8694444444444445,-0.425,0.31
0.8722222222222222,-0.39,0.305
0.875,-0.34,0.305
0.8777777777777778,-0.265,0.32
0.8805555555555555,-0.15,0.35
0.8833333333333333,-0.06,0.385
0.8861111111111111,-0.035,0.42
0.8888888888888888,-0.035,0.455
0.8916666666666667,-0.03,0.475
0.8944444444444445,-0.01,0.455
0.8972222222222223,0.045,0.4
0.9,0.09,0.305
0.9027777777777778,0.09,0.2
0.9055555555555557,0.08,0.085
0.9083333333333333,0.105,-0.025
0.9111111111111112,0.14,-0.135
0.9138888888888888,0.195,-0.26
0.9166666666666666,0.22,-0.385
0.9194444444444444,0.22,-0.505
0.9222222222222224,0.23,-0.615
0.925,0.215,-0.685
0.9277777777777778,0.205,-0.74
0.9305555555555557,0.25,-0.77
0.9333333333333333,0.33,-0.81
0.9361111111111112,0.375,-0.835
0.9388888888888888,0.395,-0.85
0.9416666666666667,0.435,-0.855
0.9444444444444443,0.465,-0.87
0.9472222222222222,0.48,-0.87
0.95,0.47,-0.88
0.9527777777777776,0.455,-0.875
0.9555555555555556,0.46,-0.89
0.9583333333333334,0.5,-0.9
0.9611111111111112,0.54,-0.905
0.9638888888888888,0.61,-0.915
0.9666666666666667,0.675,-0.92
0.9694444444444443,0.695,-0.91
0.9722222222222222,0.715,-0.92
0.975,0.68,-0.93
0.9777777777777776,0.685,-0.95
0.9805555555555556,0.695,-0.945
0.9833333333333332,0.695,-0.95
0.9861111111111112,0.64,-0.935
0.9888888888888888,0.555,-0.935
0.9916666666666668,0.475,-0.95
0.9944444444444444,0.375,-0.97
0.9972222222222225,0.305,-0.975
1,0.29,-0.965
1.0027777777777775,0.265,-0.96
1.0055555555555558,0.195,-0.945
1.008333333333333,0.16,-0.96
1.0111111111111113,0.17,-0.98
1.0138888888888888,0.19,-0.985
1.0166666666666666,0.185,-0.975
1.0194444444444444,0.15,-0.955
1.0222222222222221,0.065,-0.94
1.025,-0.055,-0.95
1.0277777777777777,-0.155,-0.96
1.0305555555555554,-0.17,-0.975
1.0333333333333337,-0.16,-0.97
1.0361111111111112,-0.17,-0.945
1.038888888888889,-0.215,-0.925
1.0416666666666667,-0.28,-0.935
1.0444444444444445,-0.33,-0.94
1.0472222222222223,-0.4,-0.935
1.05,-0.455,-0.93
1.0527777777777778,-0.505,-0.905
1.0555555555555556,-0.55,-0.895
1.0583333333333333,-0.6,-0.885
1.0611111111111111,-0.675,-0.9
1.0638888888888889,-0.72,-0.9
1.0666666666666667,-0.75,-0.88
1.0694444444444444,-0.79,-0.86
1.0722222222222222,-0.82,-0.83
1.075,-0.87,-0.83
1.0777777777777777,-0.9,-0.835
1.0805555555555555,-0.905,-0.84
1.0833333333333333,-0.855,-0.825
1.086111111111111,-0.83,-0.795
1.0888888888888888,-0.855,-0.77
1.0916666666666663,-0.905,-0.76
1.0944444444444446,-0.945,-0.785
1.0972222222222223,-0.925,-0.775
1.1,-0.875,-0.77
1.1027777777777779,-0.85,-0.75
1.1055555555555556,-0.88,-0.725
1.1083333333333336,-0.91,-0.715
1.1111111111111112,-0.935,-0.73
1.113888888888889,-0.905,-0.73
1.1166666666666667,-0.87,-0.725
1.1194444444444445,-0.84,-0.69
1.1222222222222222,-0.83,-0.65
1.125,-0.84,-0.64
1.1277777777777778,-0.855,-0.64
1.1305555555555555,-0.86,-0.66
1.1333333333333333,-0.835,-0.65
1.136111111111111,-0.8,-0.625
1.1388888888888888,-0.775,-0.58
1.1416666666666664,-0.735,-0.59
1.1444444444444444,-0.66,-0.6
1.1472222222222221,-0.555,-0.6
1.15,-0.5,-0.6
1.1527777777777777,-0.45,-0.565
1.1555555555555554,-0.395,-0.535
1.1583333333333337,-0.32,-0.515
1.1611111111111112,-0.275,-0.51
1.163888888888889,-0.21,-0.51
1.1666666666666667,-0.125,-0.51
1.1694444444444445,-0.035,-0.48
1.1722222222222223,-0.005,-0.44
1.175,-0.005,-0.425
1.1777777777777778,-0.02,-0.44
1.1805555555555556,-0.015,-0.435
1.1833333333333333,0.02,-0.435
1.1861111111111111,0.07,-0.41
1.1888888888888889,0.15,-0.365
1.1916666666666667,0.18,-0.365
1.1944444444444444,0.15,-0.36
1.1972222222222222,0.095,-0.375
1.2,0.105,-0.375
1.2027777777777777,0.17,-0.35
1.2055555555555555,0.22,-0.315
1.2083333333333333,0.225,-0.295
1.211111111111111,0.235,-0.3
1.2138888888888888,0.27,-0.31
1.2166666666666663,0.285,-0.305
1.2194444444444446,0.355,-0.29
1.2222222222222223,0.385,-0.265
1.225,0.415,-0.255
1.2277777777777779,0.425,-0.26
1.2305555555555556,0.435,-0.26
1.2333333333333336,0.485,-0.275
1.2361111111111112,0.54,-0.255
1.238888888888889,0.55,-0.22
1.2416666666666667,0.525,-0.185
1.2444444444444445,0.505,-0.19
1.2472222222222222,0.535,-0.205
1.25,0.625,-0.22
1.2527777777777778,0.68,-0.205
1.2555555555555555,0.68,-0.175
1.2583333333333333,0.64,-0.16
1.261111111111111,0.67,-0.15
1.2638888888888888,0.72,-0.165
1.2666666666666664,0.735,-0.165
1.2694444444444444,0.73,-0.145
1.2722222222222221,0.695,-0.115
1.275,0.63,-0.095
1.2777777777777777,0.53,-0.085
1.2805555555555554,0.43,-0.1
1.2833333333333337,0.4,-0.1
1.2861111111111112,0.37,-0.09
1.288888888888889,0.355,-0.05
1.2916666666666667,0.35,-0.025
1.2944444444444445,0.335,-0.025
1.2972222222222223,0.325,-0.025
1.3,0.33,-0.035
1.3027777777777778,0.295,-0.025
1.3055555555555556,0.245,0
1.3083333333333333,0.245,0.04
1.3111111111111111,0.255,0.04
1.3138888888888889,0.185,0.035
1.3166666666666667,0.09,0.015
1.3194444444444444,0,0.025
1.3222222222222222,-0.025,0.045
1.325,-0.05,0.07
1.3277777777777777,-0.1,0.085
1.3305555555555555,-0.195,0.065
1.3333333333333333,-0.26,0.055
1.336111111111111,-0.325,0.06
1.3388888888888888,-0.365,0.075
1.3416666666666663,-0.49,0.09
1.3444444444444446,-0.555,0.105
1.3472222222222223,-0.56,0.1
1.35,-0.575,0.085
1.3527777777777779,-0.605,0.095
1.3555555555555556,-0.645,0.09
1.3583333333333336,-0.69,0.11
1.3611111111111112,-0.745,0.105
1.363888888888889,-0.77,0.11
1.3666666666666667,-0.75,0.105
1.3694444444444445,-0.775,0.095
1.3722222222222222,-0.875,0.1
1.375,-0.945,0.105
1.3777777777777778,-0.945,0.125
1.3805555555555555,-0.89,0.125
1.3833333333333333,-0.845,0.125
1.386111111111111,-0.855,0.115
1.3888888888888888,-0.88,0.11
1.3916666666666664,-0.875,0.125
1.3944444444444444,-0.84,0.125
1.3972222222222221,-0.84,0.13
1.4,-0.905,0.115
1.4027777777777777,-0.94,0.125
1.4055555555555554,-0.905,0.12
1.4083333333333337,-0.83,0.13
1.4111111111111112,-0.82,0.135
1.413888888888889,-0.815,0.135
1.4166666666666667,-0.835,0.13
1.4194444444444445,-0.86,0.125
1.4222222222222223,-0.865,0.12
1.425,-0.85,0.13
1.4277777777777778,-0.825,0.135
1.4305555555555556,-0.79,0.135
1.4333333333333333,-0.765,0.13
1.4361111111111111,-0.76,0.12
1.4388888888888889,-0.75,0.125
1.4416666666666667,-0.705,0.13
1.4444444444444444,-0.615,0.14
1.4472222222222222,-0.55,0.145
1.45,-0.5,0.13
1.4527777777777777,-0.46,0.13
1.4555555555555555,-0.38,0.13
1.4583333333333333,-0.3,0.125
1.461111111111111,-0.235,0.135
1.4638888888888888,-0.22,0.135
1.4666666666666663,-0.155,0.14
1.4694444444444446,-0.055,0.135
1.4722222222222223,0.02,0.13
1.475,0,0.125
1.4777777777777779,-0.03,0.13
1.4805555555555556,0.04,0.125
1.4833333333333336,0.175,0.13
1.4861111111111112,0.205,0.145
1.488888888888889,0.175,0.145
1.4916666666666667,0.095,0.125
1.4944444444444445,0.11,0.125
1.4972222222222222,0.19,0.135
1.5,0.275,0.14
1.5027777777777778,0.31,0.14
1.5055555555555555,0.305,0.135
1.5083333333333333,0.315,0.13
1.511111111111111,0.335,0.125
1.5138888888888888,0.37,0.14
1.5166666666666664,0.375,0.13
1.5194444444444444,0.405,0.135
1.5222222222222221,0.445,0.125
1.525,0.495,0.12
1.5277777777777777,0.5,0.14
1.5305555555555554,0.505,0.13
1.5333333333333337,0.555,0.135
1.5361111111111112,0.655,0.13
1.538888888888889,0.68,0.11
1.5416666666666667,0.625,0.115
1.5444444444444445,0.63,0.12
1.5472222222222223,0.725,0.135
1.55,0.82,0.125
1.5527777777777778,0.835,0.12
1.5555555555555556,0.755,0.12
1.5583333333333333,0.725,0.125
1.5611111111111111,0.72,0.125
1.5638888888888889,0.68,0.14
1.5666666666666667,0.585,0.14
1.5694444444444444,0.485,0.125
1.5722222222222222,0.425,0.125
1.575,0.385,0.125
1.5777777777777777,0.39,0.13
1.5805555555555555,0.385,0.13
1.5833333333333333,0.37,0.125
1.586111111111111,0.325,0.12
1.5888888888888888,0.255,0.13
1.5916666666666663,0.275,0.13
1.5944444444444446,0.33,0.13
1.5972222222222223,0.37,0.135
1.6,0.34,0.125
1.6027777777777779,0.3,0.125
1.6055555555555556,0.285,0.125
1.6083333333333336,0.26,0.135
1.6111111111111112,0.21,0.13
1.613888888888889,0.135,0.14
1.6166666666666667,-0.005,0.125
1.6194444444444445,-0.125,0.12
1.6222222222222222,-0.16,0.13
1.625,-0.18,0.13
1.6277777777777778,-0.255,0.135
1.6305555555555555,-0.43,0.13
1.6333333333333333,-0.54,0.12
1.636111111111111,-0.525,0.1
1.6388888888888888,-0.41,0.115
1.6416666666666664,-0.395,0.13
1.6444444444444444,-0.525,0.135
1.6472222222222221,-0.64,0.125
1.65,-0.68,0.11
1.6527777777777777,-0.645,0.11
1.6555555555555554,-0.655,0.1
1.6583333333333337,-0.715,0.12
1.6611111111111112,-0.77,0.13
1.663888888888889,-0.805,0.12
1.6666666666666667,-0.815,0.115
1.6694444444444445,-0.8,0.12
1.6722222222222223,-0.83,0.11
1.675,-0.91,0.12
1.6777777777777778,-0.925,0.125
1.6805555555555556,-0.875,0.125
1.6833333333333333,-0.835,0.115
1.6861111111111111,-0.84,0.09
1.6888888888888889,-0.83,0.11
1.6916666666666667,-0.795,0.115
1.6944444444444444,-0.8,0.125
1.6972222222222222,-0.83,0.125
1.7,-0.825,0.1
1.7027777777777777,-0.78,0.085
1.7055555555555555,-0.7,0.11
1.7083333333333333,-0.67,0.125
1.711111111111111,-0.685,0.125
1.7138888888888888,-0.715,0.1
1.7166666666666663,-0.745,0.085
1.7194444444444446,-0.7,0.095
1.7222222222222223,-0.66,0.11
1.725,-0.64,0.13
1.7277777777777779,-0.6,0.115
1.7305555555555556,-0.53,0.105
1.7333333333333336,-0.505,0.085
1.7361111111111112,-0.5,0.105
1.738888888888889,-0.465,0.12
1.7416666666666667,-0.395,0.135
1.7444444444444445,-0.3,0.135
1.7472222222222222,-0.225,0.1
1.75,-0.125,0.09
1.7527777777777778,-0.04,0.095
1.7555555555555555,-0.02,0.12
1.7583333333333333,-0.03,0.13
1.761111111111111,0.015,0.115
1.7638888888888888,0.125,0.095
1.7666666666666664,0.205,0.075
1.7694444444444444,0.24,0.09
1.7722222222222221,0.245,0.12
1.775,0.25,0.125
1.7777777777777777,0.285,0.12
1.7805555555555554,0.305,0.095
1.7833333333333337,0.325,0.075
1.7861111111111112,0.355,0.085
1.788888888888889,0.395,0.115
1.7916666666666667,0.43,0.12
1.7944444444444445,0.475,0.12
1.7972222222222223,0.485,0.1
1.8,0.505,0.075
1.8027777777777776,0.5,0.085
1.805555555555556,0.515,0.105
1.8083333333333333,0.56,0.115
1.8111111111111111,0.595,0.115
1.8138888888888889,0.63,0.095
1.8166666666666667,0.685,0.075
1.8194444444444444,0.74,0.085
1.8222222222222224,0.78,0.11
1.825,0.795,0.115
1.8277777777777775,0.825,0.115
1.8305555555555557,0.855,0.075
1.8333333333333333,0.875,0.075
1.836111111111111,0.875,0.09
1.8388888888888888,0.845,0.105
1.8416666666666663,0.77,0.13
1.8444444444444448,0.66,0.105
1.8472222222222223,0.55,0.07
1.85,0.45,0.065
1.8527777777777776,0.39,0.105
1.855555555555556,0.355,0.115
1.8583333333333332,0.325,0.12
1.8611111111111112,0.335,0.1
1.863888888888889,0.34,0.075
1.8666666666666667,0.34,0.06
1.869444444444445,0.325,0.075
1.8722222222222225,0.295,0.1
1.875,0.28,0.115
1.8777777777777775,0.265,0.105
1.8805555555555558,0.22,0.065
1.8833333333333333,0.17,0.06
1.886111111111111,0.115,0.095
1.8888888888888888,0.025,0.11
1.8916666666666664,-0.075,0.105
1.8944444444444444,-0.165,0.095
1.8972222222222224,-0.26,0.06
1.9,-0.31,0.06
1.9027777777777777,-0.37,0.085
1.9055555555555557,-0.4,0.1
1.9083333333333332,-0.405,0.1
1.9111111111111116,-0.425,0.085
1.913888888888889,-0.455,0.06
1.9166666666666667,-0.5,0.055
1.9194444444444447,-0.545,0.09
1.9222222222222225,-0.585,0.095
1.925,-0.61,0.085
1.9277777777777776,-0.635,0.075
1.930555555555556,-0.655,0.055
1.9333333333333333,-0.695,0.05
1.9361111111111111,-0.725,0.07
1.9388888888888889,-0.755,0.095
1.9416666666666667,-0.775,0.095
1.9444444444444444,-0.825,0.07
1.9472222222222224,-0.825,0.06
1.95,-0.845,0.055
1.9527777777777775,-0.865,0.085
1.9555555555555557,-0.885,0.105
1.9583333333333333,-0.885,0.095
1.961111111111111,-0.865,0.07
1.9638888888888888,-0.83,0.05
1.9666666666666663,-0.78,0.06
1.9694444444444448,-0.775,0.08
1.9722222222222223,-0.765,0.09
1.975,-0.765,0.08
1.9777777777777776,-0.765,0.06
1.980555555555556,-0.745,0.055
1.9833333333333332,-0.72,0.05
1.9861111111111112,-0.715,0.07
1.988888888888889,-0.72,0.09
1.9916666666666667,-0.71,0.08
1.994444444444445,-0.69,0.065
1.9972222222222225,-0.685,0.035
2,-0.635,0.04
2.0027777777777778,-0.64,0.055
2.0055555555555555,-0.64,0.075
2.0083333333333333,-0.615,0.065
2.011111111111111,-0.595,0.055
2.013888888888889,-0.555,0.03
2.016666666666666,-0.505,0.045
2.0194444444444444,-0.45,0.065
2.0222222222222226,-0.395,0.07
2.025,-0.325,0.075
2.0277777777777777,-0.245,0.035
2.0305555555555554,-0.155,0.025
2.033333333333333,-0.095,0.05
2.036111111111111,-0.035,0.065
2.0388888888888888,-0.005,0.065
2.041666666666666,0.025,0.065
2.0444444444444443,0.06,0.04
2.047222222222222,0.105,0.025
2.05,0.125,0.05
2.0527777777777776,0.14,0.055
2.0555555555555554,0.16,0.055
2.058333333333333,0.17,0.05
2.061111111111111,0.195,0.04
2.063888888888889,0.23,0.035
2.066666666666667,0.27,0.04
2.0694444444444446,0.275,0.055
2.0722222222222224,0.295,0.07
2.075,0.32,0.065
2.077777777777778,0.355,0.035
2.080555555555556,0.375,0.035
2.083333333333333,0.41,0.035
2.0861111111111117,0.43,0.05
2.088888888888889,0.46,0.06
2.091666666666667,0.48,0.055
2.0944444444444446,0.54,0.025
2.0972222222222223,0.595,0.025
2.1,0.655,0.025
2.102777777777778,0.66,0.055
2.105555555555556,0.68,0.05
2.108333333333333,0.69,0.045
2.1111111111111116,0.7,0.015
2.113888888888889,0.695,0.015
2.1166666666666667,0.655,0.035
2.1194444444444445,0.57,0.045
2.1222222222222222,0.46,0.055
2.125,0.385,0.04
2.1277777777777778,0.335,0.015
2.130555555555556,0.29,0.015
2.133333333333333,0.31,0.035
2.136111111111111,0.305,0.05
2.138888888888889,0.27,0.045
2.1416666666666666,0.265,0.05
2.1444444444444444,0.27,0.015
2.147222222222222,0.28,0.015
2.15,0.285,0.03
2.1527777777777777,0.3,0.03
2.155555555555556,0.28,0.05
2.158333333333333,0.24,0.05
2.161111111111111,0.195,0.015
2.1638888888888888,0.16,0.005
2.1666666666666665,0.11,0.02
2.1694444444444443,0.025,0.04
2.172222222222222,-0.055,0.04
2.175,-0.125,0.03
2.1777777777777776,-0.16,
2.1805555555555554,-0.235,
2.183333333333333,-0.27,
2.186111111111111,-0.29,
2.188888888888889,-0.32,
2.191666666666667,-0.34,
2.1944444444444446,-0.405,
2.1972222222222224,-0.44,
2.2,-0.465,
2.202777777777778,-0.495,
2.205555555555556,-0.515,
2.208333333333333,-0.545,
2.2111111111111117,-0.6,
2.213888888888889,-0.645,
2.216666666666667,-0.675,
2.2194444444444446,-0.735,
2.2222222222222223,-0.775,
2.225,-0.8,
2.227777777777778,-0.825,
2.230555555555556,-0.85,
2.233333333333333,-0.875,
2.2361111111111116,-0.905,
2.238888888888889,-0.925,
2.2416666666666667,-0.935,
2.2444444444444445,-0.9,
2.2472222222222222,-0.875,
2.25,-0.855,
2.2527777777777778,-0.855,
2.255555555555556,-0.855,
2.258333333333333,-0.855,
2.261111111111111,-0.85,
2.263888888888889,-0.835,
2.2666666666666666,-0.81,
2.2694444444444444,-0.78,
2.272222222222222,-0.785,
2.275,-0.76,
2.2777777777777777,-0.735,
2.280555555555556,-0.705,
2.283333333333333,-0.7,
2.286111111111111,-0.69,
2.2888888888888888,-0.68,
2.2916666666666665,-0.65,
2.2944444444444443,-0.625,
2.297222222222222,-0.59,
2.3,-0.585,
2.3027777777777776,-0.57,
2.3055555555555554,-0.545,
2.308333333333333,-0.485,
2.311111111111111,-0.44,
2.313888888888889,-0.37,
2.316666666666667,-0.31,
2.3194444444444446,-0.27,
2.3222222222222224,-0.23,
2.325,-0.2,
2.327777777777778,-0.175,
2.330555555555556,-0.135,
2.333333333333333,-0.08,
2.3361111111111117,-0.045,
2.338888888888889,-0.04,
2.341666666666667,-0.02,
2.3444444444444446,-0.01,
2.3472222222222223,0.015,
2.35,0.045,
2.352777777777778,0.04,
2.355555555555556,0.055,
2.358333333333333,0.08,
2.3611111111111116,0.13,
2.363888888888889,0.175,
2.3666666666666667,0.195,
2.3694444444444445,0.2,
2.3722222222222222,0.185,
2.375,0.2,
2.3777777777777778,0.26,
2.380555555555556,0.305,
2.383333333333333,0.35,
2.386111111111111,0.38,
2.388888888888889,0.415,
2.3916666666666666,0.465,
2.3944444444444444,0.48,
2.397222222222222,0.48,
2.4,0.48,
2.4027777777777777,0.415,
2.405555555555556,0.325,
2.408333333333333,0.265,
2.411111111111111,0.19,
2.4138888888888888,0.12,
2.4166666666666665,0.09,
2.4194444444444443,0.075,
2.422222222222222,0.045,
2.425,0.045,
2.4277777777777776,0.06,
2.4305555555555554,0.07,
2.433333333333333,0.115,
2.436111111111111,0.145,
2.438888888888889,0.16,
2.441666666666667,0.165,
2.4444444444444446,0.145,
2.4472222222222224,0.145,
2.45,0.1,
2.452777777777778,0.03,
2.455555555555556,-0.03,
2.458333333333333,-0.09,
2.4611111111111117,-0.135,
2.463888888888889,-0.145,
2.466666666666667,-0.175,
2.4694444444444446,-0.23,
2.4722222222222223,-0.265,
2.475,-0.3,
2.477777777777778,-0.345,
2.480555555555556,-0.39,
2.483333333333333,-0.42,
2.4861111111111116,-0.445,
2.488888888888889,-0.5,
2.4916666666666667,-0.56,
2.4944444444444445,-0.59,
2.4972222222222222,-0.63,
2.5,-0.63,
2.5027777777777778,-0.645,
2.505555555555556,-0.68,
2.508333333333333,-0.695,
2.511111111111111,-0.715,
2.513888888888889,-0.74,
2.5166666666666666,-0.755,
2.5194444444444444,-0.8,
2.522222222222222,-0.85,
2.525,-0.905,
2.5277777777777777,-0.91,
2.530555555555556,-0.885,
2.533333333333333,-0.87,
2.536111111111111,-0.85,
2.5388888888888888,-0.87,
2.5416666666666665,-0.87,
2.5444444444444443,-0.835,
2.547222222222222,-0.795,
2.55,-0.745,
2.5527777777777776,-0.73,
2.5555555555555554,-0.75,
2.558333333333333,-0.74,
2.561111111111111,-0.745,
2.563888888888889,-0.7,
2.566666666666667,-0.7,
2.5694444444444446,-0.7,
2.5722222222222224,-0.71,
2.575,-0.715,
2.577777777777778,-0.705,
2.580555555555556,-0.67,
2.583333333333333,-0.63,
2.5861111111111117,-0.605,
2.588888888888889,-0.575,
2.591666666666667,-0.55,
2.5944444444444446,-0.51,
2.5972222222222223,-0.465,
2.6,-0.42,
2.602777777777778,-0.43,
2.605555555555556,-0.41,
2.608333333333333,-0.375,
2.6111111111111116,-0.34,
2.613888888888889,-0.295,
2.6166666666666667,-0.27,
2.6194444444444445,-0.245,
2.6222222222222222,-0.245,
2.625,-0.25,
2.6277777777777778,-0.25,
2.630555555555556,-0.2,
2.633333333333333,-0.13,
2.636111111111111,-0.09,
2.638888888888889,-0.075,
2.6416666666666666,-0.09,
2.6444444444444444,-0.085,
2.647222222222222,-0.06,
2.65,-0.045,
2.6527777777777777,-0.015,
2.655555555555556,0.01,
2.658333333333333,0.03,
2.661111111111111,0.055,
2.6638888888888888,0.09,
2.6666666666666665,0.14,
2.6694444444444443,0.21,
2.672222222222222,0.265,
2.675,0.265,
2.6777777777777776,0.23,
2.6805555555555554,0.17,
2.683333333333333,0.12,
2.686111111111111,0.05,
2.688888888888889,-0.015,
2.691666666666667,-0.07,
2.6944444444444446,-0.1,
2.6972222222222224,-0.08,
2.7,-0.06,
2.702777777777778,-0.03,
2.705555555555556,0.01,
2.708333333333333,0.035,
2.7111111111111117,0.06,
2.713888888888889,0.08,
2.716666666666667,0.085,
2.7194444444444446,0.1,
2.7222222222222223,0.105,
2.725,0.08,
2.727777777777778,0.06,
2.730555555555556,0.015,
2.733333333333333,-0.01,
2.7361111111111116,-0.065,
2.738888888888889,-0.095,
2.7416666666666667,-0.155,
2.7444444444444445,-0.215,
2.7472222222222222,-0.26,
2.75,-0.3,
2.7527777777777778,-0.33,
2.755555555555556,-0.38,
2.758333333333333,-0.425,
2.761111111111111,-0.47,
2.763888888888889,-0.485,
2.7666666666666666,-0.485,
2.7694444444444444,-0.5,
2.772222222222222,-0.545,
2.775,-0.58,
2.7777777777777777,-0.61,
2.780555555555556,-0.61,
2.783333333333333,-0.63,
2.786111111111111,-0.635,
2.7888888888888888,-0.645,
2.7916666666666665,-0.67,
2.7944444444444443,-0.69,
2.797222222222222,-0.68,
2.8,-0.685,
2.8027777777777776,-0.705,
2.8055555555555554,-0.735,
2.808333333333333,-0.725,
2.811111111111111,-0.7,
2.813888888888889,-0.62,
2.816666666666667,-0.61,
2.8194444444444446,-0.635,
2.8222222222222224,-0.64,
2.825,-0.605,
2.827777777777778,-0.54,
2.830555555555556,-0.475,
2.833333333333333,-0.46,
2.8361111111111117,-0.5,
2.838888888888889,-0.52,
2.841666666666667,-0.52,
2.8444444444444446,-0.505,
2.8472222222222223,-0.465,
2.85,-0.435,
2.852777777777778,-0.42,
2.855555555555556,-0.475,
2.858333333333333,-0.51,
2.8611111111111116,-0.51,
2.863888888888889,-0.455,
2.8666666666666667,-0.415,
2.8694444444444445,-0.38,
2.8722222222222222,-0.385,
2.875,-0.395,
2.8777777777777778,-0.385,
2.880555555555556,-0.35,
2.883333333333333,-0.32,
2.886111111111111,-0.335,
2.888888888888889,-0.365,
2.8916666666666666,-0.395,
2.8944444444444444,-0.375,
2.897222222222222,-0.315,
2.9,-0.27,
2.9027777777777777,-0.275,
2.905555555555556,-0.28,
2.908333333333333,-0.285,
2.911111111111111,-0.255,
2.9138888888888888,-0.195,
2.9166666666666665,-0.14,
2.9194444444444443,-0.135,
2.922222222222222,-0.12,
2.925,-0.125,
2.9277777777777776,-0.11,
2.9305555555555554,-0.09,
2.933333333333333,-0.065,
2.936111111111111,-0.055,
2.938888888888889,-0.025,
2.941666666666667,0.005,
2.9444444444444446,0.05,
2.9472222222222224,0.075,
2.95,0.115,
2.952777777777778,0.145,
2.955555555555556,0.14,
2.958333333333333,0.115,
2.9611111111111117,0.08,
2.963888888888889,0.08,
2.966666666666667,0.065,
2.9694444444444446,0.01,
2.9722222222222223,-0.045,
2.975,-0.08,
2.977777777777778,-0.075,
2.980555555555556,-0.04,
2.983333333333333,-0.01,
2.9861111111111116,0.015,
2.988888888888889,0.04,
2.9916666666666667,0.065,
2.9944444444444445,0.095,
2.9972222222222222,0.14,
3,0.17,
3.0027777777777778,-0.385,
3.005555555555556,-0.4,
3.008333333333333,-0.405,
3.011111111111111,-0.425,
3.013888888888889,-0.435,
3.0166666666666666,-0.42,
3.0194444444444444,-0.395,
3.022222222222222,-0.385,
3.025,-0.375,
3.0277777777777777,-0.385,
3.030555555555556,-0.38,
3.033333333333333,-0.36,
3.036111111111111,-0.355,
3.0388888888888888,-0.325,
3.0416666666666665,-0.335,
3.0444444444444443,-0.335,
3.047222222222222,-0.325,
3.05,-0.33,
3.0527777777777776,-0.32,
3.0555555555555554,-0.325,
3.058333333333333,-0.32,
3.061111111111111,-0.31,
3.063888888888889,-0.3,
3.066666666666667,-0.295,
3.0694444444444446,-0.29,
3.0722222222222224,-0.31,
3.075,-0.31,
3.077777777777778,-0.325,
3.080555555555556,-0.345,
3.083333333333333,-0.355,
3.0861111111111117,-0.37,
3.088888888888889,-0.405,
3.091666666666667,-0.425,
3.0944444444444446,-0.46,
3.0972222222222223,-0.47,
3.1,-0.475,
3.102777777777778,-0.48,
3.105555555555556,-0.475,
3.108333333333333,-0.505,
3.1111111111111116,-0.535,
3.113888888888889,-0.555,
3.1166666666666667,-0.565,
3.1194444444444445,-0.59,
3.1222222222222222,-0.605,
3.125,-0.625,
3.1277777777777778,-0.635,
3.130555555555556,-0.62,
3.133333333333333,-0.6,
3.136111111111111,-0.555,
3.138888888888889,-0.53,
3.1416666666666666,-0.515,
3.1444444444444444,-0.505,
3.147222222222222,-0.46,
3.15,-0.41,
3.1527777777777777,-0.375,
3.155555555555556,-0.34,
3.158333333333333,-0.305,
3.161111111111111,-0.29,
3.1638888888888888,-0.27,
3.1666666666666665,-0.23,
3.1694444444444443,-0.17,
3.172222222222222,-0.145,
3.175,-0.1,
3.1777777777777776,-0.1,
3.1805555555555554,-0.055,
3.183333333333333,0.005,
3.186111111111111,0.07,
3.188888888888889,0.13,
3.191666666666667,0.195,
3.1944444444444446,0.265,
3.1972222222222224,0.34,
3.2,0.41,
3.202777777777778,0.49,
3.205555555555556,0.535,
3.208333333333333,0.58,
3.2111111111111117,0.6,
3.213888888888889,0.625,
3.216666666666667,0.665,
3.2194444444444446,0.68,
3.2222222222222223,0.695,
3.225,0.715,
3.227777777777778,0.695,
3.230555555555556,0.695,
3.233333333333333,0.705,
3.2361111111111116,0.725,
3.238888888888889,0.71,
3.2416666666666667,0.695,
3.2444444444444445,0.675,
3.2472222222222222,0.66,
3.25,0.66,
3.2527777777777778,0.64,
3.255555555555556,0.615,
3.258333333333333,0.585,
3.261111111111111,0.525,
3.263888888888889,0.495,
3.2666666666666666,0.475,
3.2694444444444444,0.445,
3.272222222222222,0.405,
3.275,0.375,
3.2777777777777777,0.32,
3.280555555555556,0.265,
3.283333333333333,0.22,
3.286111111111111,0.17,
3.2888888888888888,0.135,
3.2916666666666665,0.085,
3.2944444444444443,0.005,
3.297222222222222,-0.06,
3.3,-0.12,
3.3027777777777776,-0.185,
3.3055555555555554,-0.23,
3.308333333333333,-0.275,
3.311111111111111,-0.32,
3.313888888888889,-0.36,
3.316666666666667,-0.4,
3.3194444444444446,-0.405,
3.3222222222222224,-0.405,
3.325,-0.42,
3.327777777777778,-0.44,
3.330555555555556,-0.44,
3.333333333333333,-0.415,
3.3361111111111117,-0.385,
3.338888888888889,-0.365,
3.341666666666667,-0.365,
3.3444444444444446,-0.37,
3.3472222222222223,-0.375,
3.35,-0.375,
3.352777777777778,-0.37,
3.355555555555556,-0.365,
3.358333333333333,-0.375,
3.3611111111111116,-0.38,
3.363888888888889,-0.415,
3.3666666666666667,-0.41,
3.3694444444444445,-0.42,
3.3722222222222222,-0.425,
3.375,-0.445,
3.3777777777777778,-0.47,
3.380555555555556,-0.475,
3.383333333333333,-0.48,
3.386111111111111,-0.47,
3.388888888888889,-0.475,
3.3916666666666666,-0.49,
3.3944444444444444,-0.515,
3.397222222222222,-0.53,
3.4,-0.555,
3.4027777777777777,-0.58,
3.405555555555556,-0.595,
3.408333333333333,-0.645,
3.411111111111111,-0.68,
3.4138888888888888,-0.7,
3.4166666666666665,-0.715,
3.4194444444444443,-0.695,
3.422222222222222,-0.715,
3.425,-0.745,
3.4277777777777776,-0.77,
3.4305555555555554,-0.79,
3.433333333333333,-0.79,
3.436111111111111,-0.785,
3.438888888888889,-0.77,
3.441666666666667,-0.755,
3.4444444444444446,-0.74,
3.4472222222222224,-0.72,
3.45,-0.69,
3.452777777777778,-0.67,
3.455555555555556,-0.655,
3.458333333333333,-0.64,
3.4611111111111117,-0.63,
3.463888888888889,-0.62,
3.466666666666667,-0.59,
3.4694444444444446,-0.545,
3.4722222222222223,-0.53,
3.475,-0.505,
3.477777777777778,-0.475,
3.480555555555556,-0.46,
3.483333333333333,-0.435,
3.4861111111111116,-0.395,
3.488888888888889,-0.38,
3.4916666666666667,-0.355,
3.4944444444444445,-0.34,
3.4972222222222222,-0.315,
3.5,-0.28,
3.5027777777777778,-0.245,
3.505555555555556,-0.225,
3.508333333333333,-0.205,
3.511111111111111,-0.185,
3.513888888888889,-0.15,
3.5166666666666666,-0.125,
3.5194444444444444,-0.09,
3.522222222222222,-0.055,
3.525,-0.03,
3.5277777777777777,0,
3.530555555555556,0.035,
3.533333333333333,0.075,
3.536111111111111,0.105,
3.5388888888888888,0.135,
3.5416666666666665,0.15,
3.5444444444444443,0.17,
3.547222222222222,0.195,
3.55,0.225,
3.5527777777777776,0.275,
3.5555555555555554,0.33,
3.558333333333333,0.395,
3.561111111111111,0.47,
3.563888888888889,0.545,
3.566666666666667,0.615,
3.5694444444444446,0.665,
3.5722222222222224,0.69,
3.575,0.705,
3.577777777777778,0.73,
3.580555555555556,0.75,
3.583333333333333,0.77,
3.5861111111111117,0.785,
3.588888888888889,0.79,
3.591666666666667,0.77,
3.5944444444444446,0.75,
3.5972222222222223,0.74,
3.6,0.72,
3.602777777777778,0.705,
3.605555555555556,0.69,
3.6083333333333334,0.655,
3.611111111111111,0.625,
3.613888888888889,0.585,
3.6166666666666667,0.54,
3.619444444444444,0.515,
3.6222222222222222,0.475,
3.625,0.445,
3.6277777777777778,0.41,
3.630555555555556,0.37,
3.6333333333333333,0.35,
3.636111111111111,0.305,
3.638888888888889,0.27,
3.6416666666666666,0.21,
3.644444444444444,0.155,
3.647222222222222,0.115,
3.65,0.075,
3.6527777777777777,0.035,
3.655555555555556,-0.01,
3.658333333333333,-0.075,
3.661111111111111,-0.1,
3.6638888888888888,-0.145,
3.6666666666666665,-0.165,
3.669444444444444,-0.185,
3.672222222222222,-0.24,
3.675,-0.28,
3.6777777777777776,-0.32,
3.6805555555555554,-0.355,
3.683333333333333,-0.36,
3.686111111111111,-0.34,
3.688888888888889,-0.33,
3.691666666666667,-0.33,
3.6944444444444446,-0.345,
3.6972222222222233,-0.345,
3.7,-0.32,
3.702777777777778,-0.32,
3.705555555555556,-0.365,
3.7083333333333335,-0.4,
3.7111111111111112,-0.47,
3.713888888888889,-0.52,
3.716666666666667,-0.565,
3.719444444444444,-0.6,
3.7222222222222223,-0.635,
3.725,-0.695,
3.727777777777778,-0.71,
3.730555555555556,-0.73,
3.7333333333333334,-0.73,
3.736111111111111,-0.73,
3.738888888888889,-0.745,
3.7416666666666667,-0.775,
3.744444444444444,-0.8,
3.7472222222222222,-0.815,
3.75,-0.83,
3.7527777777777778,-0.835,
3.755555555555556,-0.835,
3.7583333333333333,-0.86,
3.761111111111111,-0.865,
3.763888888888889,-0.86,
3.7666666666666666,-0.84,
3.769444444444444,-0.82,
3.772222222222222,-0.785,
3.775,-0.77,
3.7777777777777777,-0.745,
3.780555555555556,-0.705,
3.783333333333333,-0.66,
3.786111111111111,-0.62,
3.7888888888888888,-0.57,
3.7916666666666665,-0.535,
3.794444444444444,-0.515,
3.797222222222222,-0.48,
3.8,-0.45,
3.8027777777777776,-0.405,
3.8055555555555554,-0.375,
3.808333333333333,-0.36,
3.811111111111111,-0.35,
3.813888888888889,-0.335,
3.816666666666667,-0.31,
3.8194444444444446,-0.265,
3.8222222222222233,-0.245,
3.825,-0.235,
3.827777777777778,-0.225,
3.830555555555556,-0.21,
3.8333333333333335,-0.185,
3.8361111111111112,-0.16,
3.838888888888889,-0.14,
3.841666666666667,-0.13,
3.844444444444444,-0.12,
3.8472222222222223,-0.095,
3.85,-0.055,
3.852777777777778,-0.025,
3.855555555555556,-0.005,
3.8583333333333334,0.005,
3.861111111111111,0.015,
3.863888888888889,0.035,
3.8666666666666667,0.065,
3.869444444444444,0.08,
3.8722222222222222,0.1,
3.875,0.11,
3.8777777777777778,0.135,
3.880555555555556,0.155,
3.8833333333333333,0.185,
3.886111111111111,0.205,
3.888888888888889,0.215,
3.8916666666666666,0.205,
3.894444444444444,0.22,
3.897222222222222,0.24,
3.9,0.275,
3.9027777777777777,0.325,
3.905555555555556,0.385,
3.908333333333333,0.455,
3.911111111111111,0.535,
3.9138888888888888,0.595,
3.9166666666666665,0.645,
3.919444444444444,0.68,
3.922222222222222,0.71,
3.925,0.715,
3.9277777777777776,0.72,
3.9305555555555554,0.755,
3.933333333333333,0.775,
3.936111111111111,0.78,
3.938888888888889,0.77,
3.941666666666667,0.76,
3.9444444444444446,0.73,
3.9472222222222233,0.72,
3.95,0.71,
3.952777777777778,0.695,
3.955555555555556,0.67,
3.9583333333333335,0.64,
3.9611111111111112,0.585,
3.963888888888889,0.545,
3.966666666666667,0.525,
3.969444444444444,0.495,
3.9722222222222223,0.45,
3.975,0.4,
3.977777777777778,0.365,
3.980555555555556,0.33,
3.9833333333333334,0.315,
3.986111111111111,0.28,
3.988888888888889,0.22,
3.9916666666666667,0.18,
3.994444444444444,0.15,
3.9972222222222222,0.105,
4,0.085,
4.002777777777777,0.04,
4.005555555555556,-0.01,
4.008333333333334,-0.05,
4.011111111111111,-0.09,
4.013888888888889,-0.125,
4.016666666666667,-0.145,
4.019444444444445,-0.135,
4.022222222222222,-0.16,
4.025000000000001,-0.2,
4.027777777777778,-0.24,
4.030555555555556,-0.275,
4.033333333333333,-0.26,
4.036111111111111,-0.24,
4.038888888888889,-0.245,
4.041666666666667,-0.225,
4.044444444444444,-0.245,
4.047222222222223,-0.275,
4.05,-0.285,
4.052777777777778,-0.31,
4.055555555555555,-0.345,
4.058333333333334,-0.4,
4.061111111111111,-0.465,
4.063888888888889,-0.52,
4.066666666666666,-0.555,
4.069444444444445,-0.59,
4.072222222222222,-0.62,
4.075,-0.665,
4.0777777777777775,-0.695,
4.080555555555556,-0.735,
4.083333333333333,-0.765,
4.086111111111111,-0.79,
4.088888888888889,-0.82,
4.091666666666667,-0.87,
4.094444444444444,-0.9,
4.097222222222222,-0.91,
4.1,-0.915,
4.102777777777778,-0.915,
4.105555555555555,-0.915,
4.108333333333333,-0.91,
4.111111111111111,-0.905,
4.113888888888889,-0.89,
4.116666666666666,-0.845,
4.1194444444444445,-0.805,
4.122222222222222,-0.775,
4.125,-0.755,
4.127777777777778,-0.73,
4.1305555555555555,-0.69,
4.133333333333334,-0.64,
4.136111111111111,-0.59,
4.138888888888889,-0.55,
4.141666666666667,-0.53,
4.144444444444445,-0.51,
4.147222222222222,-0.485,
4.15,-0.445,
4.152777777777778,-0.425,
4.155555555555556,-0.385,
4.158333333333333,-0.37,
4.161111111111111,-0.34,
4.163888888888889,-0.315,
4.166666666666667,-0.265,
4.169444444444444,-0.24,
4.1722222222222225,-0.225,
4.175,-0.22,
4.177777777777778,-0.23,
4.180555555555555,-0.225,
4.183333333333334,-0.21,
4.186111111111111,-0.185,
4.188888888888889,-0.17,
4.191666666666666,-0.175,
4.194444444444445,-0.165,
4.197222222222222,-0.145,
4.2,-0.115,
4.2027777777777775,-0.1,
4.205555555555556,-0.08,
4.208333333333333,-0.075,
4.211111111111111,-0.065,
4.213888888888889,-0.06,
4.216666666666667,-0.03,
4.219444444444444,-0.005,
4.222222222222222,0.01,
4.225,0.01,
4.227777777777778,0.005,
4.230555555555555,0.01,
4.233333333333333,0.015,
4.236111111111111,0.045,
4.238888888888889,0.075,
4.241666666666666,0.075,
4.2444444444444445,0.085,
4.247222222222222,0.085,
4.25,0.12,
4.252777777777778,0.13,
4.2555555555555555,0.155,
4.258333333333334,0.14,
4.261111111111111,0.135,
4.263888888888889,0.14,
4.266666666666667,0.14,
4.269444444444445,0.145,
4.272222222222222,0.15,
4.275,0.145,
4.277777777777778,0.15,
4.280555555555556,0.145,
4.283333333333333,0.16,
4.286111111111111,0.19,
4.288888888888889,0.19,
4.291666666666667,0.19,
4.294444444444444,0.17,
4.2972222222222225,0.175,
4.3,0.205,
4.302777777777778,0.235,
4.305555555555555,0.255,
4.308333333333334,0.255,
4.311111111111111,0.26,
4.313888888888889,0.28,
4.316666666666666,0.295,
4.319444444444445,0.335,
4.322222222222222,0.36,
4.325,0.395,
4.3277777777777775,0.41,
4.330555555555556,0.44,
4.333333333333333,0.505,
4.336111111111111,0.575,
4.338888888888889,0.645,
4.341666666666667,0.73,
4.344444444444444,0.815,
4.347222222222222,0.87,
4.35,0.945,
4.352777777777778,1.03,
4.355555555555555,1.075,
4.358333333333333,1.1,
4.361111111111111,1.125,
4.363888888888889,1.13,
4.366666666666666,1.15,
4.3694444444444445,1.155,
4.372222222222222,1.13,
4.375,1.105,
4.377777777777778,1.06,
4.3805555555555555,1.025,
4.383333333333334,1.02,
4.386111111111111,1.015,
4.388888888888889,0.98,
4.391666666666667,0.93,
4.394444444444445,0.875,
4.397222222222222,0.835,
4.4,0.795,
4.402777777777778,0.735,
4.405555555555556,0.68,
4.408333333333333,0.615,
4.411111111111111,0.55,
4.413888888888889,0.5,
4.416666666666667,0.46,
4.419444444444444,0.41,
4.4222222222222225,0.36,
4.425,0.315,
4.427777777777778,0.265,
4.430555555555555,0.205,
4.433333333333334,0.16,
4.436111111111111,0.13,
4.438888888888889,0.09,
4.441666666666666,0.03,
4.444444444444445,-0.015,
4.447222222222222,-0.085,
4.45,-0.155,
4.4527777777777775,-0.215,
4.455555555555556,-0.27,
4.458333333333333,-0.325,
4.461111111111111,-0.38,
4.463888888888889,-0.4,
4.466666666666667,-0.42,
4.469444444444444,-0.43,
4.472222222222222,-0.435,
4.475,-0.495,
4.477777777777778,-0.54,
4.480555555555555,-0.585,
4.483333333333333,-0.59,
4.486111111111111,-0.585,
4.488888888888889,-0.605,
4.491666666666666,-0.66,
4.4944444444444445,-0.675,
4.497222222222222,-0.7,
4.5,-0.715,
4.502777777777778,-0.745,
4.5055555555555555,-0.785,
4.508333333333334,-0.805,
4.511111111111111,-0.785,
4.513888888888889,-0.755,
4.516666666666667,-0.715,
4.519444444444445,-0.7,
4.522222222222222,-0.675,
4.525,-0.68,
4.527777777777778,-0.67,
4.530555555555556,-0.65,
4.533333333333333,-0.63,
4.536111111111111,-0.6,
4.538888888888889,-0.585,
4.541666666666667,-0.575,
4.544444444444444,-0.565,
4.5472222222222225,-0.56,
4.55,-0.54,
4.552777777777778,-0.515,
4.555555555555555,-0.505,
4.558333333333334,-0.515,
4.561111111111111,-0.52,
4.563888888888889,-0.525,
4.566666666666666,-0.505,
4.569444444444445,-0.48,
4.572222222222222,-0.475,
4.575,-0.48,
4.5777777777777775,-0.475,
4.580555555555556,-0.5,
4.583333333333333,-0.49,
4.586111111111111,-0.47,
4.588888888888889,-0.46,
4.591666666666667,-0.46,
4.594444444444444,-0.45,
4.597222222222222,-0.45,
4.6,-0.45,
4.602777777777778,-0.425,
4.605555555555555,-0.41,
4.608333333333333,-0.395,
4.611111111111111,-0.405,
4.613888888888889,-0.4,
4.616666666666666,-0.395,
4.6194444444444445,-0.37,
4.622222222222222,-0.365,
4.625,-0.385,
4.627777777777778,-0.385,
4.6305555555555555,-0.375,
4.633333333333334,-0.37,
4.636111111111111,-0.355,
4.638888888888889,-0.35,
4.641666666666667,-0.35,
4.644444444444445,-0.345,
4.647222222222222,-0.345,
4.65,-0.335,
4.652777777777778,-0.31,
4.655555555555556,-0.305,
4.658333333333333,-0.315,
4.661111111111111,-0.315,
4.663888888888889,-0.32,
4.666666666666667,-0.295,
4.669444444444444,-0.28,
4.6722222222222225,-0.265,
4.675,-0.29,
4.677777777777778,-0.285,
4.680555555555555,-0.275,
4.683333333333334,-0.255,
4.686111111111111,-0.245,
4.688888888888889,-0.245,
4.691666666666666,-0.255,
4.694444444444445,-0.255,
4.697222222222222,-0.245,
4.7,-0.245,
4.7027777777777775,-0.225,
4.705555555555556,-0.215,
4.708333333333333,-0.21,
4.711111111111111,-0.22,
4.713888888888889,-0.225,
4.716666666666667,-0.185,
4.719444444444444,-0.18,
4.722222222222222,-0.17,
4.725,-0.165,
4.727777777777778,-0.175,
4.730555555555555,-0.185,
4.733333333333333,-0.175,
4.736111111111111,-0.15,
4.738888888888889,-0.15,
4.741666666666666,-0.125,
4.7444444444444445,-0.14,
4.747222222222222,-0.125,
4.75,-0.11,
4.752777777777778,-0.08,
4.7555555555555555,-0.08,
4.758333333333334,-0.085,
4.761111111111111,-0.07,
4.763888888888889,-0.035,
4.766666666666667,-0.005,
4.769444444444445,0.055,
4.772222222222222,0.08,
4.775,0.09,
4.777777777777778,0.14,
4.780555555555556,0.19,
4.783333333333333,0.25,
4.786111111111111,0.305,
4.788888888888889,0.35,
4.791666666666667,0.39,
4.794444444444444,0.445,
4.7972222222222225,0.465,
4.8,0.54,
4.802777777777778,0.63,
4.805555555555555,0.69,
4.808333333333334,0.775,
4.811111111111111,0.8,
4.813888888888889,0.845,
4.816666666666666,0.88,
4.819444444444445,0.9,
4.822222222222222,0.91,
4.825,0.935,
4.8277777777777775,1.01,
4.830555555555556,1.07,
4.833333333333333,1.135,
4.836111111111111,1.17,
4.838888888888889,1.145,
4.841666666666667,1.07,
4.844444444444444,1,
4.847222222222222,0.91,
4.85,0.805,
4.852777777777778,0.67,
4.855555555555555,0.525,
4.858333333333333,0.38,
4.861111111111111,0.215,
4.863888888888889,0.04,
4.866666666666666,-0.095,
4.8694444444444445,-0.195,
4.872222222222222,-0.295,
4.875,-0.355,
4.877777777777778,-0.43,
4.8805555555555555,-0.485,
4.883333333333334,-0.48,
4.886111111111111,-0.46,
4.888888888888889,-0.455,
4.891666666666667,-0.43,
4.894444444444445,-0.42,
4.897222222222222,-0.43,
4.9,-0.425,
4.902777777777778,-0.4,
4.905555555555556,-0.4,
4.908333333333333,-0.415,
4.911111111111111,-0.43,
4.913888888888889,-0.43,
4.916666666666667,-0.415,
4.919444444444444,-0.4,
4.9222222222222225,-0.4,
4.925,-0.42,
4.927777777777778,-0.41,
4.930555555555555,-0.42,
4.933333333333334,-0.415,
4.936111111111111,-0.41,
4.938888888888889,-0.405,
4.941666666666666,-0.405,
4.944444444444445,-0.42,
4.947222222222222,-0.435,
4.95,-0.41,
4.9527777777777775,-0.4,
4.955555555555556,-0.405,
4.958333333333333,-0.415,
4.961111111111111,-0.405,
4.963888888888889,-0.415,
4.966666666666667,-0.395,
4.969444444444444,-0.385,
4.972222222222222,-0.375,
4.975,-0.39,
4.977777777777778,-0.4,
4.980555555555555,-0.385,
4.983333333333333,-0.37,
4.986111111111111,-0.36,
4.988888888888889,-0.355,
4.991666666666666,-0.335,
4.9944444444444445,-0.345,
4.997222222222222,-0.345,
5,-0.325,
5.002777777777778,-0.315,
5.0055555555555555,-0.305,
5.008333333333334,-0.31,
5.011111111111111,-0.3,
5.013888888888889,-0.285,
5.016666666666667,-0.275,
5.019444444444445,-0.285,
5.022222222222222,-0.27,
5.025,-0.265,
5.027777777777778,-0.27,
5.030555555555556,-0.27,
5.033333333333333,-0.26,
5.036111111111111,-0.265,
5.038888888888889,-0.23,
5.041666666666667,-0.22,
5.044444444444444,-0.22,
5.0472222222222225,-0.215,
5.05,-0.205,
5.052777777777778,-0.205,
5.055555555555555,-0.19,
5.058333333333334,-0.18,
5.061111111111111,-0.185,
5.063888888888889,-0.185,
5.066666666666666,-0.18,
5.069444444444445,-0.17,
5.072222222222222,-0.15,
5.075,-0.155,
5.0777777777777775,-0.17,
5.080555555555556,-0.18,
5.083333333333333,-0.165,
5.086111111111111,-0.145,
5.088888888888889,-0.145,
5.091666666666667,-0.155,
5.094444444444444,-0.165,
5.097222222222222,-0.16,
5.1,-0.145,
5.102777777777778,-0.13,
5.105555555555555,-0.12,
5.108333333333333,-0.135,
5.111111111111111,-0.15,
5.113888888888889,-0.15,
5.116666666666666,-0.13,
5.1194444444444445,-0.115,
5.122222222222222,-0.135,
5.125,-0.165,
5.127777777777778,-0.165,
5.1305555555555555,-0.17,
5.133333333333334,-0.165,
5.136111111111111,-0.165,
5.138888888888889,-0.15,
5.141666666666667,-0.155,
5.144444444444445,-0.185,
5.147222222222222,-0.19,
5.15,-0.18,
5.152777777777778,-0.155,
5.155555555555556,-0.16,
5.158333333333333,-0.17,
5.161111111111111,-0.175,
5.163888888888889,-0.17,
5.166666666666667,-0.17,
5.169444444444444,-0.16,
5.1722222222222225,-0.185,
5.175,-0.22,
5.177777777777778,-0.225,
5.180555555555555,-0.2,
5.183333333333334,-0.175,
5.186111111111111,-0.16,
5.188888888888889,-0.16,
5.191666666666666,-0.175,
5.194444444444445,-0.175,
5.197222222222222,-0.18,
5.2,-0.165,
5.2027777777777775,-0.15,
5.205555555555556,-0.15,
5.208333333333333,-0.18,
5.211111111111111,-0.17,
5.213888888888889,-0.16,
5.216666666666667,-0.145,
5.219444444444444,-0.13,
5.222222222222222,-0.135,
5.225,-0.16,
5.227777777777778,-0.16,
5.230555555555555,-0.17,
5.233333333333333,-0.17,
5.236111111111111,-0.165,
5.238888888888889,-0.14,
5.241666666666666,-0.175,
5.2444444444444445,-0.195,
5.247222222222222,-0.19,
5.25,-0.19,
5.252777777777778,-0.17,
5.2555555555555555,-0.15,
5.258333333333334,-0.155,
5.261111111111111,-0.165,
5.263888888888889,-0.175,
5.266666666666667,-0.165,
5.269444444444445,-0.145,
5.272222222222222,-0.15,
5.275,-0.17,
5.277777777777778,-0.17,
5.280555555555556,-0.18,
5.283333333333333,-0.16,
5.286111111111111,-0.15,
5.288888888888889,-0.16,
5.291666666666667,-0.165,
5.294444444444444,-0.17,
5.2972222222222225,-0.185,
5.3,-0.17,
5.302777777777778,-0.155,
5.305555555555555,-0.175,
5.308333333333334,-0.175,
5.311111111111111,-0.175,
5.313888888888889,-0.17,
5.316666666666666,-0.18,
5.319444444444445,-0.165,
5.322222222222222,-0.17,
5.325,-0.175,
5.3277777777777775,-0.175,
5.330555555555556,-0.17,
5.333333333333333,-0.17,
5.336111111111111,-0.165,
5.338888888888889,-0.155,
5.341666666666667,-0.16,
5.344444444444444,-0.18,
5.347222222222222,-0.18,
5.35,-0.17,
5.352777777777778,-0.165,
5.355555555555555,-0.165,
5.358333333333333,-0.175,
5.361111111111111,-0.19,
5.363888888888889,-0.175,
5.366666666666666,-0.165,
5.3694444444444445,-0.15,
5.372222222222222,-0.15,
5.375,-0.15,
5.377777777777778,-0.16,
5.3805555555555555,-0.17,
5.383333333333334,-0.14,
5.386111111111111,-0.125,
5.388888888888889,-0.13,
5.391666666666667,-0.145,
5.394444444444445,-0.16,
5.397222222222222,-0.165,
5.4,-0.16,
5.402777777777778,-0.155,
5.405555555555556,-0.155,
5.408333333333333,-0.165,
5.411111111111111,-0.175,
5.413888888888889,-0.185,
5.416666666666667,-0.17,
5.419444444444444,-0.15,
5.4222222222222225,-0.15,
5.425,-0.14,
5.427777777777778,-0.145,
5.430555555555555,-0.15,
5.433333333333334,-0.135,
5.436111111111111,-0.125,
5.438888888888889,-0.13,
5.441666666666666,-0.15,
5.444444444444445,-0.15,
5.447222222222222,-0.14,
5.45,-0.135,
5.4527777777777775,-0.13,
5.455555555555556,-0.135,
5.458333333333333,-0.14,
5.461111111111111,-0.15,
5.463888888888889,-0.145,
5.466666666666667,-0.145,
5.469444444444444,-0.13,
5.472222222222222,-0.14,
5.475,-0.15,
5.477777777777778,-0.155,
5.480555555555555,-0.145,
5.483333333333333,-0.14,
5.486111111111111,-0.125,
5.488888888888889,-0.135,
5.491666666666666,-0.135,
5.4944444444444445,-0.16,
5.497222222222222,-0.16,
5.5,-0.14,
5.502777777777778,-0.13,
5.5055555555555555,-0.13,
5.508333333333334,-0.135,
5.511111111111111,-0.15,
5.513888888888889,-0.155,
5.516666666666667,-0.145,
5.519444444444445,-0.135,
5.522222222222222,-0.135,
5.525,-0.15,
5.527777777777778,-0.15,
5.530555555555556,-0.155,
5.533333333333333,-0.14,
5.536111111111111,-0.12,
5.538888888888889,-0.115,
5.541666666666667,-0.125,
5.544444444444444,-0.135,
5.5472222222222225,-0.15,
5.55,-0.115,
5.552777777777778,-0.105,
5.555555555555555,-0.115,
5.558333333333334,-0.125,
5.561111111111111,-0.135,
5.563888888888889,-0.13,
5.566666666666666,-0.135,
5.569444444444445,-0.12,
5.572222222222222,-0.115,
5.575,-0.13,
5.5777777777777775,-0.155,
5.580555555555556,-0.145,
5.583333333333333,-0.135,
5.586111111111111,-0.13,
5.588888888888889,-0.11,
5.591666666666667,-0.12,
5.594444444444444,-0.125,
5.597222222222222,-0.135,
5.6,-0.125,
5.602777777777778,-0.1,
5.605555555555555,-0.1,
5.608333333333333,-0.125,
5.611111111111111,-0.135,
5.613888888888889,-0.135,
5.616666666666666,-0.115,
5.6194444444444445,-0.105,
5.622222222222222,-0.11,
5.625,-0.115,
5.627777777777778,-0.135,
5.6305555555555555,-0.135,
5.633333333333334,-0.13,
5.636111111111111,-0.11,
5.638888888888889,-0.115,
5.641666666666667,-0.13,
5.644444444444445,-0.13,
5.647222222222222,-0.14,
5.65,-0.12,
5.652777777777778,-0.115,
5.655555555555556,-0.11,
5.658333333333333,-0.12,
5.661111111111111,-0.12,
5.663888888888889,-0.125,
5.666666666666667,-0.105,
5.669444444444444,-0.1,
5.6722222222222225,-0.11,
5.675,-0.115,
5.677777777777778,-0.13,
5.680555555555555,-0.13,
5.683333333333334,-0.115,
5.686111111111111,-0.105,
5.688888888888889,-0.11,
5.691666666666666,-0.12,
5.694444444444445,-0.13,
5.697222222222222,-0.135,
5.7,-0.12,
5.7027777777777775,-0.105,
5.705555555555556,-0.11,
5.708333333333333,-0.11,
5.711111111111111,-0.115,
5.713888888888889,-0.105,
5.716666666666667,-0.1,
5.719444444444444,-0.09,
5.722222222222222,-0.095,
5.725,-0.11,
5.727777777777778,-0.115,
5.730555555555555,-0.115,
5.733333333333333,-0.105,
5.736111111111111,-0.09,
5.738888888888889,-0.095,
5.741666666666666,-0.105,
5.7444444444444445,-0.115,
5.747222222222222,-0.12,
5.75,-0.115,
5.752777777777778,-0.095,
5.7555555555555555,-0.095,
5.758333333333334,-0.1,
5.761111111111111,-0.105,
5.763888888888889,-0.105,
5.766666666666667,-0.085,
5.769444444444445,-0.075,
5.772222222222222,-0.075,
5.775,-0.085,
5.777777777777778,-0.11,
5.780555555555556,-0.105,
5.783333333333333,-0.11,
5.786111111111111,-0.1,
5.788888888888889,-0.085,
5.791666666666667,-0.095,
5.794444444444444,-0.11,
5.7972222222222225,-0.12,
5.8,-0.11,
5.802777777777778,-0.09,
5.805555555555555,-0.09,
5.808333333333334,-0.105,
5.811111111111111,-0.115,
5.813888888888889,-0.11,
5.816666666666666,-0.105,
5.819444444444445,-0.09,
5.822222222222222,-0.085,
5.825,-0.09,
5.8277777777777775,-0.1,
5.830555555555556,-0.105,
5.833333333333333,-0.09,
5.836111111111111,-0.075,
5.838888888888889,-0.085,
5.841666666666667,-0.1,
5.844444444444444,-0.1,
5.847222222222222,-0.095,
5.85,-0.095,
5.852777777777778,-0.085,
5.855555555555555,-0.09,
5.858333333333333,-0.085,
5.861111111111111,-0.105,
5.863888888888889,-0.12,
5.866666666666666,-0.1,
5.8694444444444445,-0.09,
5.872222222222222,-0.075,
5.875,-0.1,
5.877777777777778,-0.105,
5.8805555555555555,-0.105,
5.883333333333334,-0.09,
5.886111111111111,-0.08,
5.888888888888889,-0.08,
5.891666666666667,-0.09,
5.894444444444445,-0.1,
5.897222222222222,-0.09,
5.9,-0.09,
5.902777777777778,-0.065,
5.905555555555556,-0.075,
5.908333333333333,-0.09,
5.911111111111111,-0.105,
5.913888888888889,-0.11,
5.916666666666667,-0.085,
5.919444444444444,-0.085,
5.9222222222222225,-0.085,
5.925,-0.1,
5.927777777777778,-0.105,
5.930555555555555,-0.095,
5.933333333333334,-0.09,
5.936111111111111,-0.07,
5.938888888888889,-0.08,
5.941666666666666,-0.08,
5.944444444444445,-0.1,
5.947222222222222,-0.105,
5.95,-0.09,
5.9527777777777775,-0.08,
5.955555555555556,-0.08,
5.958333333333333,-0.09,
5.961111111111111,-0.095,
5.963888888888889,-0.095,
5.966666666666667,-0.1,
5.969444444444444,-0.085,
5.972222222222222,-0.08,
5.975,-0.1,
5.977777777777778,-0.105,
5.980555555555555,-0.105,
5.983333333333333,-0.085,
5.986111111111111,-0.09,
5.988888888888889,-0.075,
5.991666666666666,-0.08,
5.9944444444444445,-0.09,
5.997222222222222,-0.1,
6,-0.08,
6.002777777777778,-0.065,
6.0055555555555555,-0.065,
6.008333333333334,-0.07,
6.011111111111111,-0.09,
6.013888888888889,-0.095,
6.016666666666667,-0.075,
6.019444444444445,-0.065,
6.022222222222222,-0.08,
6.025,-0.09,
6.027777777777778,-0.095,
6.030555555555556,-0.1,
6.033333333333333,-0.085,
6.036111111111111,-0.075,
6.038888888888889,-0.08,
6.041666666666667,-0.09,
6.044444444444444,-0.085,
6.0472222222222225,-0.095,
6.05,-0.09,
6.052777777777778,-0.075,
6.055555555555555,-0.07,
6.058333333333334,-0.08,
6.061111111111111,-0.085,
6.063888888888889,-0.075,
6.066666666666666,-0.075,
6.069444444444445,-0.07,
6.072222222222222,-0.065,
6.075,-0.075,
6.0777777777777775,-0.085,
6.080555555555556,-0.095,
6.083333333333333,-0.085,
6.086111111111111,-0.08,
6.088888888888889,-0.085,
6.091666666666667,-0.1,
6.094444444444444,-0.1,
6.097222222222222,-0.1,
6.1,-0.09,
6.102777777777778,-0.085,
6.105555555555555,-0.075,
6.108333333333333,-0.08,
6.111111111111111,-0.095,
6.113888888888889,-0.095,
6.116666666666666,-0.09,
6.1194444444444445,-0.065,
6.122222222222222,-0.07,
6.125,-0.08,
6.127777777777778,-0.09,
6.1305555555555555,-0.1,
6.133333333333334,-0.08,
6.136111111111111,-0.07,
6.138888888888889,-0.09,
6.141666666666667,-0.1,
6.144444444444445,-0.1,
6.147222222222222,-0.095,
6.15,-0.08,
6.152777777777778,,
6.155555555555556,,
6.158333333333333,,
6.161111111111111,,
6.163888888888889,,
6.166666666666667,,
6.169444444444444,,
6.1722222222222225,,
6.175,,
6.177777777777778,,
6.180555555555555,,
6.183333333333334,,
6.186111111111111,,
6.188888888888889,,
6.191666666666666,,
6.194444444444445,,
6.197222222222222,,
6.2,,
6.2027777777777775,,
6.205555555555556,,
6.208333333333333,,
6.211111111111111,,
6.213888888888889,,
6.216666666666667,,
6.219444444444444,,
6.222222222222222,,
6.225,,
6.227777777777778,,
6.230555555555555,,
6.233333333333333,,
6.236111111111111,,
6.238888888888889,,
6.241666666666666,,
6.2444444444444445,,
6.247222222222222,,
6.25,,
6.252777777777778,,
6.2555555555555555,,
6.258333333333334,,
6.261111111111111,,
6.263888888888889,,
6.266666666666667,,
6.269444444444445,,
6.272222222222222,,
6.275,,
6.277777777777778,,
6.280555555555556,,
6.283333333333333,,
6.286111111111111,,
6.288888888888889,,
6.291666666666667,,
6.294444444444444,,
6.2972222222222225,,
6.3,,
6.302777777777778,,
6.305555555555555,,
6.308333333333334,,
6.311111111111111,,
6.313888888888889,,
6.316666666666666,,
6.319444444444445,,
6.322222222222222,,
6.325,,
6.3277777777777775,,
6.330555555555556,,
6.333333333333333,,
6.336111111111111,,
6.338888888888889,,
6.341666666666667,,
6.344444444444444,,
6.347222222222222,,
6.35,,
6.352777777777778,,
6.355555555555555,,
6.358333333333333,,
6.361111111111111,,
6.363888888888889,,
6.366666666666666,,
6.3694444444444445,,
6.372222222222222,,
6.375,,
6.377777777777778,,
6.3805555555555555,,
6.383333333333334,,
6.386111111111111,,
6.388888888888889,,
6.391666666666667,,
6.394444444444445,,
6.397222222222222,,
6.4,,
6.402777777777778,,
6.405555555555556,,
6.408333333333333,,
6.411111111111111,,
6.413888888888889,,
6.416666666666667,,
6.419444444444444,,
6.4222222222222225,,
6.425,,
6.427777777777778,,
6.430555555555555,,
6.433333333333334,,
6.436111111111111,,
6.438888888888889,,
6.441666666666666,,
6.444444444444445,,
6.447222222222222,,
6.45,,
6.4527777777777775,,
6.455555555555556,,
6.458333333333333,,
6.461111111111111,,
6.463888888888889,,
6.466666666666667,,
6.469444444444444,,
6.472222222222222,,
6.475,,
6.477777777777778,,
6.480555555555555,,
6.483333333333333,,
6.486111111111111,,
6.488888888888889,,
6.491666666666666,,
6.4944444444444445,,
6.497222222222222,,
6.5,,
6.502777777777778,,
6.5055555555555555,,
6.508333333333334,,
6.511111111111111,,
6.513888888888889,,
6.516666666666667,,
6.519444444444445,,
6.522222222222222,,
6.525,,
6.527777777777778,,
6.530555555555556,,
6.533333333333333,,
6.536111111111111,,
6.538888888888889,,
6.541666666666667,,
6.544444444444444,,
6.5472222222222225,,
6.55,,
6.552777777777778,,
6.555555555555555,,
6.558333333333334,,
6.561111111111111,,
6.563888888888889,,
6.566666666666666,,
6.569444444444445,,
6.572222222222222,,
6.575,,
6.5777777777777775,,
6.580555555555556,,
6.583333333333333,,
6.586111111111111,,
6.588888888888889,,
6.591666666666667,,
6.594444444444444,,
6.597222222222222,,
6.6,,
6.602777777777778,,
6.605555555555555,,
6.608333333333333,,
6.611111111111111,,
6.613888888888889,,
6.616666666666666,,
6.6194444444444445,,
6.622222222222222,,
6.625,,
6.627777777777778,,
6.6305555555555555,,
6.633333333333334,,
6.636111111111111,,
6.638888888888889,,
6.641666666666667,,
6.644444444444445,,
6.647222222222222,,
6.65,,
6.652777777777778,,
6.655555555555556,,
6.658333333333333,,
6.661111111111111,,
6.663888888888889,,
6.666666666666667,,
6.669444444444444,,
6.6722222222222225,,
6.675,,
6.677777777777778,,
6.680555555555555,,
6.683333333333334,,
6.686111111111111,,
6.688888888888889,,
6.691666666666666,,
6.694444444444445,,
6.697222222222222,,
6.7,,
6.7027777777777775,,
6.705555555555556,,
6.708333333333333,,
6.711111111111111,,
6.713888888888889,,
6.716666666666667,,
6.719444444444444,,
6.722222222222222,,
6.725,,
6.727777777777778,,
6.730555555555555,,
6.733333333333333,,
6.736111111111111,,
6.738888888888889,,
6.741666666666666,,
6.7444444444444445,,
6.747222222222222,,
6.75,,
6.752777777777778,,
6.7555555555555555,,
6.758333333333334,,
6.761111111111111,,
6.763888888888889,,
6.766666666666667,,
6.769444444444445,,
6.772222222222222,,
6.775,,
6.777777777777778,,
6.780555555555556,,
6.783333333333333,,
6.786111111111111,,
6.788888888888889,,
6.791666666666667,,
6.794444444444444,,
6.7972222222222225,,
6.8,,
6.802777777777778,,
6.805555555555555,,
6.808333333333334,,
6.811111111111111,,
6.813888888888889,,
6.816666666666666,,
6.819444444444445,,
6.822222222222222,,
6.825,,
6.8277777777777775,,
6.830555555555556,,
6.833333333333333,,
6.836111111111111,,
6.838888888888889,,
6.841666666666667,,
6.844444444444444,,
6.847222222222222,,
6.85,,
6.852777777777778,,
6.855555555555555,,
6.858333333333333,,
6.861111111111111,,
6.863888888888889,,
6.866666666666666,,
6.8694444444444445,,
6.872222222222222,,
6.875,,
6.877777777777778,,
6.8805555555555555,,
6.883333333333334,,
6.886111111111111,,
6.888888888888889,,
6.891666666666667,,
6.894444444444445,,
6.897222222222222,,
6.9,,
6.902777777777778,,
6.905555555555556,,
6.908333333333333,,
6.911111111111111,,
6.913888888888889,,
6.916666666666667,,
6.919444444444444,,
6.9222222222222225,,
6.925,,
6.927777777777778,,
6.930555555555555,,
6.933333333333334,,
6.936111111111111,,
6.938888888888889,,
6.941666666666666,,
6.944444444444445,,
6.947222222222222,,
6.95,,
6.9527777777777775,,
6.955555555555556,,
6.958333333333333,,
6.961111111111111,,
6.963888888888889,,
6.966666666666667,,
6.969444444444444,,
6.972222222222222,,
6.975,,
6.977777777777778,,
6.980555555555555,,
6.983333333333333,,
6.986111111111111,,
6.988888888888889,,
6.991666666666666,,
6.9944444444444445,,
6.997222222222222,,
7,,
7.002777777777778,,
7.0055555555555555,,
7.008333333333334,,
7.011111111111111,,
7.013888888888889,,
7.016666666666667,,
7.019444444444445,,
7.022222222222222,,
7.025,,
7.027777777777778,,
7.030555555555556,,
7.033333333333333,,
7.036111111111111,,
7.038888888888889,,
7.041666666666667,,
7.044444444444444,,
7.0472222222222225,,
7.05,,
7.052777777777778,,
7.055555555555555,,
7.058333333333334,,
7.061111111111111,,
7.063888888888889,,
7.066666666666666,,
7.069444444444445,,
7.072222222222222,,
7.075,,
7.0777777777777775,,
7.080555555555556,,
7.083333333333333,,
7.086111111111111,,
7.088888888888889,,
7.091666666666667,,
7.094444444444444,,
7.097222222222222,,
7.1,,
7.102777777777778,,
7.105555555555555,,
7.108333333333333,,
7.111111111111111,,
7.113888888888889,,
7.116666666666666,,
7.1194444444444445,,
7.122222222222222,,
7.125,,
7.127777777777778,,
7.1305555555555555,,
7.133333333333334,,
7.136111111111111,,
7.138888888888889,,
7.141666666666667,,
7.144444444444445,,
7.147222222222222,,
7.15,,
7.152777777777778,,
7.155555555555556,,
7.158333333333333,,
7.161111111111111,,
7.163888888888889,,
7.166666666666667,,
7.169444444444444,,
7.1722222222222225,,
7.175,,
7.177777777777778,,
7.180555555555555,,
7.183333333333334,,
7.186111111111111,,
7.188888888888889,,
7.191666666666666,,
7.194444444444445,,
7.197222222222222,,
7.2,,
7.2027777777777775,,
7.205555555555556,,
7.208333333333333,,
7.211111111111111,,
7.213888888888889,,
7.216666666666667,,
7.219444444444444,,
7.222222222222222,,
7.225,,
7.227777777777778,,
7.230555555555555,,
7.233333333333333,,
7.236111111111111,,
7.238888888888889,,
7.241666666666666,,
7.2444444444444445,,
7.247222222222222,,
7.25,,
7.252777777777778,,
7.2555555555555555,,
7.258333333333334,,
7.261111111111111,,
7.263888888888889,,
7.266666666666667,,
7.269444444444445,,
7.272222222222222,,
7.275,,
7.277777777777778,,
7.280555555555556,,
7.283333333333333,,
7.286111111111111,,
7.288888888888889,,
7.291666666666667,,
7.294444444444444,,
7.2972222222222225,,
7.3,,
7.302777777777778,,
7.305555555555555,,
7.308333333333334,,
7.311111111111111,,
7.313888888888889,,
7.316666666666666,,
7.319444444444445,,
7.322222222222222,,
7.325,,
7.3277777777777775,,
7.330555555555556,,
7.333333333333333,,
7.336111111111111,,
7.338888888888889,,
7.341666666666667,,
7.344444444444444,,
7.347222222222222,,
7.35,,
7.352777777777778,,
7.355555555555555,,
7.358333333333333,,
7.361111111111111,,
7.363888888888889,,
7.366666666666666,,
7.3694444444444445,,
7.372222222222222,,
7.375,,
7.377777777777778,,
7.3805555555555555,,
7.383333333333334,,
7.386111111111111,,
7.388888888888889,,
7.391666666666667,,
7.394444444444445,,
7.397222222222222,,
7.4,,
7.402777777777778,,
7.405555555555556,,
7.408333333333333,,
7.411111111111111,,
7.413888888888889,,
7.416666666666667,,
7.419444444444444,,
7.4222222222222225,,
7.425,,
7.427777777777778,,
7.430555555555555,,
7.433333333333334,,
7.436111111111111,,
7.438888888888889,,
7.441666666666666,,
7.444444444444445,,
7.447222222222222,,
7.45,,
7.4527777777777775,,
7.455555555555556,,
7.458333333333333,,
7.461111111111111,,
7.463888888888889,,
7.466666666666667,,
7.469444444444444,,
7.472222222222222,,
7.475,,
7.477777777777778,,
7.480555555555555,,
7.483333333333333,,
7.486111111111111,,
7.488888888888889,,
7.491666666666666,,
7.4944444444444445,,
7.497222222222222,,
7.5,,
7.502777777777778,,
7.5055555555555555,,
7.508333333333334,,
7.511111111111111,,
7.513888888888889,,
7.516666666666667,,
7.519444444444445,,
7.522222222222222,,
7.525,,
7.527777777777778,,
7.530555555555556,,
7.533333333333333,,
7.536111111111111,,
7.538888888888889,,
7.541666666666667,,
7.544444444444444,,
7.5472222222222225,,
7.55,,
7.552777777777778,,
7.555555555555555,,
7.558333333333334,,
7.561111111111111,,
7.563888888888889,,
7.566666666666666,,
7.569444444444445,,
7.572222222222222,,
7.575,,
7.5777777777777775,,
7.580555555555556,,
7.583333333333333,,
7.586111111111111,,
7.588888888888889,,
7.591666666666667,,
7.594444444444444,,
7.597222222222222,,
7.6,,
7.602777777777778,,
7.605555555555555,,
7.608333333333333,,
7.611111111111111,,
7.613888888888889,,
7.616666666666666,,
7.6194444444444445,,
7.622222222222222,,
7.625,,
7.627777777777778,,
7.6305555555555555,,
7.633333333333334,,
7.636111111111111,,
7.638888888888889,,
7.641666666666667,,
7.644444444444445,,
7.647222222222222,,
7.65,,
7.652777777777778,,
7.655555555555556,,
7.658333333333333,,
7.661111111111111,,
7.663888888888889,,
7.666666666666667,,
7.669444444444444,,
7.6722222222222225,,
7.675,,
7.677777777777778,,
7.680555555555555,,
7.683333333333334,,
7.686111111111111,,
7.688888888888889,,
7.691666666666666,,
7.694444444444445,,
7.697222222222222,,
7.7,,
7.7027777777777775,,
7.705555555555556,,
7.708333333333333,,
7.711111111111111,,
7.713888888888889,,
7.716666666666667,,
7.719444444444444,,
7.722222222222222,,
7.725,,
7.727777777777778,,
7.730555555555555,,
7.733333333333333,,
7.736111111111111,,
7.738888888888889,,
7.741666666666666,,
7.7444444444444445,,
7.747222222222222,,
7.75,,
7.752777777777778,,
7.7555555555555555,,
7.758333333333334,,
7.761111111111111,,
7.763888888888889,,
7.766666666666667,,
7.769444444444445,,
7.772222222222222,,
7.775,,
7.777777777777778,,
7.780555555555556,,
7.783333333333333,,
7.786111111111111,,
7.788888888888889,,
7.791666666666667,,
7.794444444444444,,
7.7972222222222225,,
7.8,,
7.802777777777778,,
7.805555555555555,,
7.808333333333334,,
7.811111111111111,,
7.813888888888889,,
7.816666666666666,,
7.819444444444445,,
7.822222222222222,,
7.825,,
7.8277777777777775,,
7.830555555555556,,
7.833333333333333,,
7.836111111111111,,
7.838888888888889,,
7.841666666666667,,
7.844444444444444,,
7.847222222222222,,
7.85,,
7.852777777777778,,
7.855555555555555,,
7.858333333333333,,
7.861111111111111,,
7.863888888888889,,
7.866666666666666,,
7.8694444444444445,,
7.872222222222222,,
7.875,,
7.877777777777778,,
7.8805555555555555,,
7.883333333333334,,
7.886111111111111,,
7.888888888888889,,
7.891666666666667,,
7.894444444444445,,
7.897222222222222,,
7.9,,
7.902777777777778,,
7.905555555555556,,
7.908333333333333,,
7.911111111111111,,
7.913888888888889,,
7.916666666666667,,
7.919444444444444,,
7.9222222222222225,,
7.925,,
7.927777777777778,,
7.930555555555555,,
7.933333333333334,,
7.936111111111111,,
7.938888888888889,,
7.941666666666666,,
7.944444444444445,,
7.947222222222222,,
7.95,,
7.9527777777777775,,
7.955555555555556,,
7.958333333333333,,
7.961111111111111,,
7.963888888888889,,
7.966666666666667,,
7.969444444444444,,
7.972222222222222,,
7.975,,
7.977777777777778,,
7.980555555555555,,
7.983333333333333,,
7.986111111111111,,
7.988888888888889,,
7.991666666666666,,
7.9944444444444445,,
7.997222222222222,,
8,,
8.002777777777778,,
8.005555555555556,,
8.008333333333333,,
8.011111111111111,,
8.013888889,,
8.016666666666667,,
8.019444444444444,,
8.022222222222222,,
8.025,,
8.027777777777779,,
8.030555555555555,,
8.033333333333333,,
8.036111111111111,,
8.038888889,,
8.041666666666666,,
8.044444444444444,,
8.047222222222222,,
8.05,,
8.052777777777777,,
8.055555555555555,,
8.058333333333334,,
8.061111111111112,,
8.063888888888888,,
8.066666666666666,,
8.069444444444445,,
8.072222222222223,,
8.075,,
8.077777777777778,,
8.080555555555556,,
8.083333333333334,,
8.086111111,,
8.088888888888889,,
8.091666666666667,,
8.094444444444445,,
8.097222222222221,,
8.1,,
8.102777777777778,,
8.105555555555556,,
8.108333333333333,,
8.111111111,,
8.113888888888889,,
8.116666666666667,,
8.119444444444444,,
8.122222222222222,,
8.125,,
8.127777777777778,,
8.130555555555556,,
8.133333333333333,,
8.136111111111111,,
8.138888889,,
8.141666666666667,,
8.144444444444444,,
8.147222222222222,,
8.15,,
8.152777777777779,,
8.155555555555555,,
8.158333333333333,,
8.161111111111111,,
8.163888889,,
8.166666666666666,,
8.169444444444444,,
8.172222222222222,,
8.175,,
8.177777777777777,,
8.180555555555555,,
8.183333333333334,,
8.186111111111112,,
8.188888888888888,,
8.191666666666666,,
8.194444444444445,,
8.197222222222223,,
8.2,,
8.202777777777778,,
8.205555555555556,,
8.208333333333334,,
8.211111111,,
8.213888888888889,,
8.216666666666667,,
8.219444444444445,,
8.222222222222221,,
8.225,,
8.227777777777778,,
8.230555555555556,,
8.233333333333333,,
8.236111111,,
8.238888888888889,,
8.241666666666667,,
8.244444444444444,,
8.247222222222222,,
8.25,,
8.252777777777778,,
8.255555555555556,,
8.258333333333333,,
8.261111111111111,,
8.263888889,,
8.266666666666667,,
8.269444444444444,,
8.272222222222222,,
8.275,,
8.277777777777779,,
8.280555555555555,,
8.283333333333333,,
8.286111111111111,,
8.288888889,,
8.291666666666666,,
8.294444444444444,,
8.297222222222222,,
8.3,,
8.302777777777777,,
8.305555555555555,,
8.308333333333334,,
8.311111111111112,,
8.313888888888888,,
8.316666666666666,,
8.319444444444445,,
8.322222222222223,,
8.325,,
8.327777777777778,,
8.330555555555556,,
8.333333333333334,,
8.336111111,,
8.338888888888889,,
8.341666666666667,,
8.344444444444445,,
8.347222222222221,,
8.35,,
8.352777777777778,,
8.355555555555556,,
8.358333333333333,,
8.361111111,,
8.363888888888889,,
8.366666666666667,,
8.369444444444444,,
8.372222222222222,,
8.375,,
8.377777777777778,,
8.380555555555556,,
8.383333333333333,,
8.386111111111111,,
8.388888889,,
8.391666666666667,,
8.394444444444444,,
8.397222222222222,,
8.4,,
8.402777777777779,,
8.405555555555555,,
8.408333333333333,,
8.411111111111111,,
8.413888889,,
8.416666666666666,,
8.419444444444444,,
8.422222222222222,,
8.425,,
8.427777777777777,,
8.430555555555555,,
8.433333333333334,,
8.436111111111112,,
8.438888888888888,,
8.441666666666666,,
8.444444444444445,,
8.447222222222223,,
8.45,,
8.452777777777778,,
8.455555555555556,,
8.458333333333334,,
8.461111111,,
8.463888888888889,,
8.466666666666667,,
8.469444444444445,,
8.472222222222221,,
8.475,,
8.477777777777778,,
8.480555555555556,,
8.483333333333333,,
8.486111111,,
8.488888888888889,,
8.491666666666667,,
8.494444444444444,,
8.497222222222222,,
8.5,,
8.502777777777778,,
8.505555555555556,,
8.508333333333333,,
8.511111111111111,,
8.513888889,,
8.516666666666667,,
8.519444444444444,,
8.522222222222222,,
8.525,,
8.527777777777779,,
8.530555555555555,,
8.533333333333333,,
8.536111111111111,,
8.538888889,,
8.541666666666666,,
8.544444444444444,,
8.547222222222222,,
8.55,,
8.552777777777777,,
8.555555555555555,,
8.558333333333334,,
8.561111111111112,,
8.563888888888888,,
8.566666666666666,,
8.569444444444445,,
8.572222222222223,,
8.575,,
8.577777777777778,,
8.580555555555556,,
8.583333333333334,,
8.586111111,,
8.588888888888889,,
8.591666666666667,,
8.594444444444445,,
8.597222222222221,,
8.6,,
8.602777777777778,,
8.605555555555556,,
8.608333333333333,,
8.611111111,,
8.613888888888889,,
8.616666666666667,,
8.619444444444444,,
8.622222222222222,,
8.625,,
8.627777777777778,,
8.630555555555556,,
8.633333333333333,,
8.636111111111111,,
8.638888889,,
8.641666666666667,,
8.644444444444444,,
8.647222222222222,,
8.65,,
8.652777777777779,,
8.655555555555555,,
8.658333333333333,,
8.661111111111111,,
8.663888889,,
8.666666666666666,,
8.669444444444444,,
8.672222222222222,,
8.675,,
8.677777777777777,,
8.680555555555555,,
8.683333333333334,,
8.686111111111112,,
8.688888888888888,,
8.691666666666666,,
8.694444444444445,,
8.697222222222223,,
8.7,,
8.702777777777778,,
8.705555555555556,,
8.708333333333334,,
8.711111111,,
8.713888888888889,,
8.716666666666667,,
8.719444444444445,,
8.722222222222221,,
8.725,,
8.727777777777778,,
8.730555555555556,,
8.733333333333333,,
8.736111111,,
8.738888888888889,,
8.741666666666667,,
8.744444444444444,,
8.747222222222222,,
8.75,,
8.752777777777778,,
8.755555555555556,,
8.758333333333333,,
8.761111111111111,,
8.763888889,,
8.766666666666667,,
8.769444444444444,,
8.772222222222222,,
8.775,,
8.777777777777779,,
8.780555555555555,,
8.783333333333333,,
8.786111111111111,,
8.788888889,,
8.791666666666666,,
8.794444444444444,,
8.797222222222222,,
8.8,,
8.802777777777777,,
8.805555555555555,,
8.808333333333334,,
8.811111111111112,,
8.813888888888888,,
8.816666666666666,,
8.819444444444445,,
8.822222222222223,,
8.825,,
8.827777777777778,,
8.830555555555556,,
8.833333333333334,,
8.836111111,,
8.838888888888889,,
8.841666666666667,,
8.844444444444445,,
8.847222222222221,,
8.85,,
8.852777777777778,,
8.855555555555556,,
8.858333333333333,,
8.861111111,,
8.863888888888889,,
8.866666666666667,,
8.869444444444444,,
8.872222222222222,,
8.875,,
8.877777777777778,,
8.880555555555556,,
8.883333333333333,,
8.886111111111111,,
8.888888889,,
8.891666666666667,,
8.894444444444444,,
8.897222222222222,,
8.9,,
8.902777777777779,,
8.905555555555555,,
8.908333333333333,,
8.911111111111111,,
8.913888889,,
8.916666666666666,,
8.919444444444444,,
8.922222222222222,,
8.925,,
8.927777777777777,,
8.930555555555555,,
8.933333333333334,,
8.936111111111112,,
8.938888888888888,,
8.941666666666666,,
8.944444444444445,,
8.947222222222223,,
8.95,,
8.952777777777778,,
8.955555555555556,,
8.958333333333334,,
8.961111111,,
8.963888888888889,,
8.966666666666667,,
8.969444444444445,,
8.972222222222221,,
8.975,,
8.977777777777778,,
8.980555555555556,,
8.983333333333333,,
8.986111111,,
8.988888888888889,,
8.991666666666667,,
8.994444444444444,,
8.997222222222222,,
9,,
9.002777777777778,,
9.005555555555556,,
9.008333333333333,,
9.011111111111111,,
9.013888889,,
9.016666666666667,,
9.019444444444444,,
9.022222222222224,,
9.025,,
9.027777777777779,,
9.030555555555557,,
9.033333333333333,,
9.036111111111111,,
9.038888889,,
9.041666666666666,,
9.044444444444444,,
9.047222222222224,,
9.05,,
9.052777777777775,,
9.055555555555557,,
9.058333333333334,,
9.061111111111112,,
9.063888888888888,,
9.066666666666666,,
9.069444444444443,,
9.072222222222225,,
9.075,,
9.077777777777776,,
9.080555555555556,,
9.083333333333334,,
9.086111111,,
9.088888888888889,,
9.091666666666667,,
9.094444444444443,,
9.097222222222221,,
9.1,,
9.102777777777776,,
9.105555555555556,,
9.108333333333333,,
9.111111111,,
9.113888888888889,,
9.116666666666667,,
9.119444444444444,,
9.122222222222224,,
9.125,,
9.127777777777776,,
9.130555555555556,,
9.133333333333333,,
9.136111111111111,,
9.138888889,,
9.141666666666667,,
9.144444444444444,,
9.147222222222224,,
9.15,,
9.152777777777779,,
9.155555555555557,,
9.158333333333333,,
9.161111111111111,,
9.163888889,,
9.166666666666666,,
9.169444444444444,,
9.172222222222224,,
9.175,,
9.177777777777775,,
9.180555555555557,,
9.183333333333334,,
9.186111111111112,,
9.188888888888888,,
9.191666666666666,,
9.194444444444443,,
9.197222222222225,,
9.2,,
9.202777777777776,,
9.205555555555556,,
9.208333333333334,,
9.211111111,,
9.213888888888889,,
9.216666666666667,,
9.219444444444443,,
9.222222222222221,,
9.225,,
9.227777777777776,,
9.230555555555556,,
9.233333333333333,,
9.236111111,,
9.238888888888889,,
9.241666666666667,,
9.244444444444444,,
9.247222222222224,,
9.25,,
9.252777777777776,,
9.255555555555556,,
9.258333333333333,,
9.261111111111111,,
9.263888889,,
9.266666666666667,,
9.269444444444444,,
9.272222222222224,,
9.275,,
9.277777777777779,,
9.280555555555557,,
9.283333333333333,,
9.286111111111111,,
9.288888889,,
9.291666666666666,,
9.294444444444444,,
9.297222222222224,,
9.3,,
9.302777777777775,,
9.305555555555557,,
9.308333333333334,,
9.311111111111112,,
9.313888888888888,,
9.316666666666666,,
9.319444444444443,,
9.322222222222225,,
9.325,,
9.327777777777776,,
9.330555555555556,,
9.333333333333334,,
9.336111111,,
9.338888888888889,,
9.341666666666667,,
9.344444444444443,,
9.347222222222221,,
9.35,,
9.352777777777776,,
9.355555555555556,,
9.358333333333333,,
9.361111111,,
9.363888888888889,,
9.366666666666667,,
9.369444444444444,,
9.372222222222224,,
9.375,,
9.377777777777776,,
9.380555555555556,,
9.383333333333333,,
9.386111111111111,,
9.388888889,,
9.391666666666667,,
9.394444444444444,,
9.397222222222224,,
9.4,,
9.402777777777779,,
9.405555555555557,,
9.408333333333333,,
9.411111111111111,,
9.413888889,,
9.416666666666666,,
9.419444444444444,,
9.422222222222224,,
9.425,,
9.427777777777775,,
9.430555555555557,,
9.433333333333334,,
9.436111111111112,,
9.438888888888888,,
9.441666666666666,,
9.444444444444443,,
9.447222222222225,,
9.45,,
9.452777777777776,,
9.455555555555556,,
9.458333333333334,,
9.461111111,,
9.463888888888889,,
9.466666666666667,,
9.469444444444443,,
9.472222222222221,,
9.475,,
9.477777777777776,,
9.480555555555556,,
9.483333333333333,,
9.486111111,,
9.488888888888889,,
9.491666666666667,,
9.494444444444444,,
9.497222222222224,,
9.5,,
9.502777777777776,,
9.505555555555556,,
9.508333333333333,,
9.511111111111111,,
9.513888889,,
9.516666666666667,,
9.519444444444444,,
9.522222222222224,,
9.525,,
9.527777777777779,,
9.530555555555557,,
9.533333333333333,,
9.536111111111111,,
9.538888889,,
9.541666666666666,,
9.544444444444444,,
9.547222222222224,,
9.55,,
9.552777777777775,,
9.555555555555557,,
9.558333333333334,,
9.561111111111112,,
9.563888888888888,,
9.566666666666666,,
9.569444444444443,,
9.572222222222225,,
9.575,,
9.577777777777776,,
9.580555555555556,,
9.583333333333334,,
9.586111111,,
9.588888888888889,,
9.591666666666667,,
9.594444444444443,,
9.597222222222221,,
9.6,,
9.602777777777776,,
9.605555555555556,,
9.608333333333333,,
9.611111111,,
9.613888888888889,,
9.616666666666667,,
9.619444444444444,,
9.622222222222224,,
9.625,,
9.627777777777776,,
9.630555555555556,,
9.633333333333333,,
9.636111111111111,,
9.638888889,,
9.641666666666667,,
9.644444444444444,,
9.647222222222224,,
9.65,,
9.652777777777779,,
9.655555555555557,,
9.658333333333333,,
9.661111111111111,,
9.663888889,,
9.666666666666666,,
9.669444444444444,,
9.672222222222224,,
9.675,,
9.677777777777775,,
9.680555555555557,,
9.683333333333334,,
9.686111111111112,,
9.688888888888888,,
9.691666666666666,,
9.694444444444443,,
9.697222222222225,,
9.7,,
9.702777777777776,,
9.705555555555556,,
9.708333333333334,,
9.711111111,,
9.713888888888889,,
9.716666666666667,,
9.719444444444443,,
9.722222222222221,,
9.725,,
9.727777777777776,,
9.730555555555556,,
9.733333333333333,,
9.736111111,,
9.738888888888889,,
9.741666666666667,,
9.744444444444444,,
9.747222222222224,,
9.75,,
9.752777777777776,,
9.755555555555556,,
9.758333333333333,,
9.761111111111111,,
9.763888889,,
9.766666666666667,,
9.769444444444444,,
9.772222222222224,,
9.775,,
9.777777777777779,,
9.780555555555557,,
9.783333333333333,,
9.786111111111111,,
9.788888889,,
9.791666666666666,,
9.794444444444444,,
9.797222222222224,,
9.8,,
9.802777777777775,,
9.805555555555557,,
9.808333333333334,,
9.811111111111112,,
9.813888888888888,,
9.816666666666666,,
9.819444444444443,,
9.822222222222225,,
9.825,,
9.827777777777776,,
9.830555555555556,,
9.833333333333334,,
9.836111111,,
9.838888888888889,,
9.841666666666667,,
9.844444444444443,,
9.847222222222221,,
9.85,,
9.852777777777776,,
9.855555555555556,,
9.858333333333333,,
9.861111111,,
9.863888888888889,,
9.866666666666667,,
9.869444444444444,,
9.872222222222224,,
9.875,,
9.877777777777776,,
9.880555555555556,,
9.883333333333333,,
9.886111111111111,,
9.888888889,,
9.891666666666667,,
9.894444444444444,,
9.897222222222224,,
9.9,,
9.902777777777779,,
9.905555555555557,,
9.908333333333333,,
9.911111111111111,,
9.913888889,,
9.916666666666666,,
9.919444444444444,,
9.922222222222224,,
9.925,,
9.927777777777775,,
9.930555555555557,,
9.933333333333334,,
9.936111111111112,,
9.938888888888888,,
9.941666666666666,,
9.944444444444443,,
9.947222222222225,,
9.95,,
9.952777777777776,,
9.955555555555556,,
9.958333333333334,,
9.961111111,,
9.963888888888889,,
9.966666666666667,,
9.969444444444443,,
9.972222222222221,,
9.975,,
9.977777777777776,,
9.980555555555556,,
9.983333333333333,,
9.986111111,,
9.988888888888889,,
9.991666666666667,,
9.994444444444444,,
9.997222222222224,,
10,,
10.002777777777776,,
10.005555555555556,,
10.008333333333333,,
10.011111111111111,,
10.01388888888889,,
10.016666666666667,,
10.019444444444444,,
10.022222222222224,,
10.025,,
10.027777777777779,,
10.030555555555557,,
10.033333333333333,,
10.036111111111111,,
10.03888888888889,,
10.041666666666666,,
10.044444444444444,,
10.047222222222224,,
10.05,,
10.052777777777775,,
10.055555555555557,,
10.058333333333334,,
10.061111111111112,,
10.063888888888888,,
10.066666666666666,,
10.069444444444443,,
10.072222222222225,,
10.075,,
10.077777777777776,,
10.080555555555556,,
10.083333333333334,,
10.08611111111111,,
10.088888888888889,,
10.091666666666667,,
10.094444444444443,,
10.097222222222221,,
10.1,,
10.102777777777776,,
10.105555555555556,,
10.108333333333333,,
10.11111111111111,,
10.113888888888889,,
10.116666666666667,,
10.119444444444444,,
10.122222222222224,,
10.125,,
10.127777777777776,,
10.130555555555556,,
10.133333333333333,,
10.136111111111111,,
10.13888888888889,,
10.141666666666667,,
10.144444444444444,,
10.147222222222224,,
10.15,,
10.152777777777779,,
10.155555555555557,,
10.158333333333333,,
10.161111111111111,,
10.16388888888889,,
10.166666666666666,,
10.169444444444444,,
10.172222222222224,,
10.175,,
10.177777777777775,,
10.180555555555557,,
10.183333333333334,,
10.186111111111112,,
10.188888888888888,,
10.191666666666666,,
10.194444444444443,,
10.197222222222225,,
10.2,,
10.202777777777776,,
10.205555555555556,,
10.208333333333334,,
10.21111111111111,,
10.213888888888889,,
10.216666666666667,,
10.219444444444443,,
10.222222222222221,,
10.225,,
10.227777777777776,,
10.230555555555556,,
10.233333333333333,,
10.23611111111111,,
10.238888888888889,,
10.241666666666667,,
10.244444444444444,,
10.247222222222224,,
10.25,,
10.252777777777776,,
10.255555555555556,,
10.258333333333333,,
10.261111111111111,,
10.26388888888889,,
10.266666666666667,,
10.269444444444444,,
10.272222222222224,,
10.275,,
10.277777777777779,,
10.280555555555557,,
10.283333333333333,,
10.286111111111111,,
10.28888888888889,,
10.291666666666666,,
10.294444444444444,,
10.297222222222224,,
10.3,,
10.302777777777775,,
10.305555555555557,,
10.308333333333334,,
10.311111111111112,,
10.313888888888888,,
10.316666666666666,,
10.319444444444443,,
10.322222222222225,,
10.325,,
10.327777777777776,,
10.330555555555556,,
10.333333333333334,,
10.33611111111111,,
10.338888888888889,,
10.341666666666667,,
10.344444444444443,,
10.347222222222221,,
10.35,,
10.352777777777776,,
10.355555555555556,,
10.358333333333333,,
10.36111111111111,,
10.363888888888889,,
10.366666666666667,,
10.369444444444444,,
10.372222222222224,,
10.375,,
10.377777777777776,,
10.380555555555556,,
10.383333333333333,,
10.386111111111111,,
10.38888888888889,,
10.391666666666667,,
10.394444444444444,,
10.397222222222224,,
10.4,,
10.402777777777779,,
10.405555555555557,,
10.408333333333333,,
10.411111111111111,,
10.41388888888889,,
10.416666666666666,,
10.419444444444444,,
10.422222222222224,,
10.425,,
10.427777777777775,,
10.430555555555557,,
10.433333333333334,,
10.436111111111112,,
10.438888888888888,,
10.441666666666666,,
10.444444444444443,,
10.447222222222225,,
10.45,,
10.452777777777776,,
10.455555555555556,,
10.458333333333334,,
10.46111111111111,,
10.463888888888889,,
10.466666666666667,,
10.469444444444443,,
10.472222222222221,,
10.475,,
10.477777777777776,,
10.480555555555556,,
10.483333333333333,,
10.48611111111111,,
10.488888888888889,,
10.491666666666667,,
10.494444444444444,,
10.497222222222224,,
10.5,,
10.502777777777776,,
10.505555555555556,,
10.508333333333333,,
10.511111111111111,,
10.51388888888889,,
10.516666666666667,,
10.519444444444444,,
10.522222222222224,,
10.525,,
10.527777777777779,,
10.530555555555557,,
10.533333333333333,,
10.536111111111111,,
10.53888888888889,,
10.541666666666666,,
10.544444444444444,,
10.547222222222224,,
10.55,,
10.552777777777775,,
10.555555555555557,,
10.558333333333334,,
10.561111111111112,,
10.563888888888888,,
10.566666666666666,,
10.569444444444443,,
10.572222222222225,,
10.575,,
10.577777777777776,,
10.580555555555556,,
10.583333333333334,,
10.58611111111111,,
10.588888888888889,,
10.591666666666667,,
10.594444444444443,,
10.597222222222221,,
10.6,,
10.602777777777776,,
10.605555555555556,,
10.608333333333333,,
10.61111111111111,,
10.613888888888889,,
10.616666666666667,,
10.619444444444444,,
10.622222222222224,,
10.625,,
10.627777777777776,,
10.630555555555556,,
10.633333333333333,,
10.636111111111111,,
10.63888888888889,,
10.641666666666667,,
10.644444444444444,,
10.647222222222224,,
10.65,,
10.652777777777779,,
10.655555555555557,,
10.658333333333333,,
10.661111111111111,,
10.66388888888889,,
10.666666666666666,,
10.669444444444444,,
10.672222222222224,,
10.675,,
10.677777777777775,,
10.680555555555557,,
10.683333333333334,,
10.686111111111112,,
10.688888888888888,,
10.691666666666666,,
10.694444444444443,,
10.697222222222225,,
10.7,,
10.702777777777776,,
10.705555555555556,,
10.708333333333334,,
10.71111111111111,,
10.713888888888889,,
10.716666666666667,,
10.719444444444443,,
10.722222222222221,,
10.725,,
10.727777777777776,,
10.730555555555556,,
10.733333333333333,,
10.73611111111111,,
10.738888888888889,,
10.741666666666667,,
10.744444444444444,,
10.747222222222224,,
10.75,,
10.752777777777776,,
10.755555555555556,,
10.758333333333333,,
10.761111111111111,,
10.76388888888889,,
10.766666666666667,,
10.769444444444444,,
10.772222222222224,,
10.775,,
10.777777777777779,,
10.780555555555557,,
10.783333333333333,,
10.786111111111111,,
10.78888888888889,,
10.791666666666666,,
10.794444444444444,,
10.797222222222224,,
10.8,,
10.802777777777775,,
10.805555555555557,,
10.808333333333334,,
10.811111111111112,,
10.813888888888888,,
10.816666666666666,,
10.819444444444443,,
10.822222222222225,,
10.825,,
10.827777777777776,,
10.830555555555556,,
10.833333333333334,,
10.83611111111111,,
10.838888888888889,,
10.841666666666667,,
10.844444444444443,,
10.847222222222221,,
10.85,,
10.852777777777776,,
10.855555555555556,,
10.858333333333333,,
10.86111111111111,,
10.863888888888889,,
10.866666666666667,,
10.869444444444444,,
10.872222222222224,,
10.875,,
10.877777777777776,,
10.880555555555556,,
10.883333333333333,,
10.886111111111111,,
10.88888888888889,,
10.891666666666667,,
10.894444444444444,,
10.897222222222224,,
10.9,,
10.902777777777779,,
10.905555555555557,,
10.908333333333333,,
10.911111111111111,,
10.91388888888889,,
10.916666666666666,,
10.919444444444444,,
10.922222222222224,,
10.925,,
10.927777777777775,,
10.930555555555557,,
10.933333333333334,,
10.936111111111112,,
10.938888888888888,,
10.941666666666666,,
10.944444444444443,,
10.947222222222225,,
10.95,,
10.952777777777776,,
10.955555555555556,,
10.958333333333334,,
10.96111111111111,,
10.963888888888889,,
10.966666666666667,,
10.969444444444443,,
10.972222222222221,,
10.975,,
10.977777777777776,,
10.980555555555556,,
10.983333333333333,,
10.98611111111111,,
10.988888888888889,,
10.991666666666667,,
10.994444444444444,,
10.997222222222224,,
11,,
11.002777777777776,,
11.005555555555556,,
11.008333333333333,,
11.011111111111111,,
11.01388888888889,,
11.016666666666667,,
11.019444444444444,,
11.022222222222224,,
11.025,,
11.027777777777779,,
11.030555555555557,,
11.033333333333333,,
11.036111111111111,,
11.03888888888889,,
11.041666666666666,,
11.044444444444444,,
11.047222222222224,,
11.05,,
11.052777777777775,,
11.055555555555557,,
11.058333333333334,,
11.061111111111112,,
11.063888888888888,,
11.066666666666666,,
11.069444444444443,,
11.072222222222225,,
11.075,,
11.077777777777776,,
11.080555555555556,,
11.083333333333334,,
11.08611111111111,,
11.088888888888889,,
11.091666666666667,,
11.094444444444443,,
11.097222222222221,,
11.1,,
11.102777777777776,,
11.105555555555556,,
11.108333333333333,,
11.11111111111111,,
11.113888888888889,,
11.116666666666667,,
11.119444444444444,,
11.122222222222224,,
11.125,,
11.127777777777776,,
11.130555555555556,,
11.133333333333333,,
11.136111111111111,,
11.13888888888889,,
11.141666666666667,,
11.144444444444444,,
11.147222222222224,,
11.15,,
11.152777777777779,,
11.155555555555557,,
11.158333333333333,,
11.161111111111111,,
11.16388888888889,,
11.166666666666666,,
11.169444444444444,,
11.172222222222224,,
11.175,,
11.177777777777775,,
11.180555555555557,,
11.183333333333334,,
11.186111111111112,,
11.188888888888888,,
11.191666666666666,,
11.194444444444443,,
11.197222222222225,,
11.2,,
11.202777777777776,,
11.205555555555556,,
11.208333333333334,,
11.21111111111111,,
11.213888888888889,,
11.216666666666667,,
11.219444444444443,,
11.222222222222221,,
11.225,,
11.227777777777776,,
11.230555555555556,,
11.233333333333333,,
11.23611111111111,,
11.238888888888889,,
11.241666666666667,,
11.244444444444444,,
11.247222222222224,,
11.25,,
11.252777777777776,,
11.255555555555556,,
11.258333333333333,,
11.261111111111111,,
11.26388888888889,,
11.266666666666667,,
11.269444444444444,,
11.272222222222224,,
11.275,,
11.277777777777779,,
11.280555555555557,,
11.283333333333333,,
11.286111111111111,,
11.28888888888889,,
11.291666666666666,,
11.294444444444444,,
11.297222222222224,,
11.3,,
11.302777777777775,,
11.305555555555557,,
11.308333333333334,,
11.311111111111112,,
11.313888888888888,,
11.316666666666666,,
11.319444444444443,,
11.322222222222225,,
11.325,,
11.327777777777776,,
11.330555555555556,,
11.333333333333334,,
11.33611111111111,,
11.338888888888889,,
11.341666666666667,,
11.344444444444443,,
11.347222222222221,,
11.35,,
11.352777777777776,,
11.355555555555556,,
11.358333333333333,,
11.36111111111111,,
11.363888888888889,,
11.366666666666667,,
11.369444444444444,,
11.372222222222224,,
11.375,,
11.377777777777776,,
11.380555555555556,,
11.383333333333333,,
11.386111111111111,,
11.38888888888889,,
11.391666666666667,,
11.394444444444444,,
11.397222222222224,,
11.4,,
11.402777777777779,,
11.405555555555557,,
11.408333333333333,,
11.411111111111111,,
11.41388888888889,,
11.416666666666666,,
11.419444444444444,,
11.422222222222224,,
11.425,,
11.427777777777775,,
11.430555555555557,,
11.433333333333334,,
11.436111111111112,,
11.438888888888888,,
11.441666666666666,,
11.444444444444443,,
11.447222222222225,,
11.45,,
11.452777777777776,,
11.455555555555556,,
11.458333333333334,,
11.46111111111111,,
11.463888888888889,,
11.466666666666667,,
11.469444444444443,,
11.472222222222221,,
11.475,,
11.477777777777776,,
11.480555555555556,,
11.483333333333333,,
11.48611111111111,,
11.488888888888889,,
11.491666666666667,,
11.494444444444444,,
11.497222222222224,,
11.5,,
11.502777777777776,,
11.505555555555556,,
11.508333333333333,,
11.511111111111111,,
11.51388888888889,,
11.516666666666667,,
11.519444444444444,,
11.522222222222224,,
11.525,,
11.527777777777779,,
11.530555555555557,,
11.533333333333333,,
11.536111111111111,,
11.53888888888889,,
11.541666666666666,,
11.544444444444444,,
11.547222222222224,,
11.55,,
11.552777777777775,,
11.555555555555557,,
11.558333333333334,,
11.561111111111112,,
11.563888888888888,,
11.566666666666666,,
11.569444444444443,,
11.572222222222225,,
11.575,,
11.577777777777776,,
11.580555555555556,,
11.583333333333334,,
11.58611111111111,,
11.588888888888889,,
11.591666666666667,,
11.594444444444443,,
11.597222222222221,,
11.6,,
11.602777777777776,,
11.605555555555556,,
11.608333333333333,,
11.61111111111111,,
11.613888888888889,,
11.616666666666667,,
11.619444444444444,,
11.622222222222224,,
11.625,,
11.627777777777776,,
11.630555555555556,,
11.633333333333333,,
11.636111111111111,,
11.63888888888889,,
11.641666666666667,,
11.644444444444444,,
11.647222222222224,,
11.65,,
11.652777777777779,,
11.655555555555557,,
11.658333333333333,,
11.661111111111111,,
11.66388888888889,,
11.666666666666666,,
11.669444444444444,,
11.672222222222224,,
11.675,,
11.677777777777775,,
11.680555555555557,,
11.683333333333334,,
11.686111111111112,,
11.688888888888888,,
11.691666666666666,,
11.694444444444443,,
11.697222222222225,,
11.7,,
11.702777777777776,,
11.705555555555556,,
11.708333333333334,,
11.71111111111111,,
11.713888888888889,,
11.716666666666667,,
11.719444444444443,,
11.722222222222221,,
11.725,,
11.727777777777776,,
11.730555555555556,,
11.733333333333333,,
11.73611111111111,,
11.738888888888889,,
11.741666666666667,,
11.744444444444444,,
11.747222222222224,,
11.75,,
11.752777777777776,,
11.755555555555556,,
11.758333333333333,,
11.761111111111111,,
11.76388888888889,,
11.766666666666667,,
11.769444444444444,,
11.772222222222224,,
11.775,,
11.777777777777779,,
11.780555555555557,,
11.783333333333333,,
11.786111111111111,,
11.78888888888889,,
11.791666666666666,,
11.794444444444444,,
11.797222222222224,,
11.8,,
11.802777777777775,,
11.805555555555557,,
11.808333333333334,,
11.811111111111112,,
11.813888888888888,,
11.816666666666666,,
11.819444444444443,,
11.822222222222225,,
11.825,,
11.827777777777776,,
11.830555555555556,,
11.833333333333334,,
11.83611111111111,,
11.838888888888889,,
11.841666666666667,,
11.844444444444443,,
11.847222222222221,,
11.85,,
11.852777777777776,,
11.855555555555556,,
11.858333333333333,,
11.86111111111111,,
11.863888888888889,,
11.866666666666667,,
11.869444444444444,,
11.872222222222224,,
11.875,,
11.877777777777776,,
11.880555555555556,,
11.883333333333333,,
11.886111111111111,,
11.88888888888889,,
11.891666666666667,,
11.894444444444444,,
11.897222222222224,,
11.9,,
11.902777777777779,,
11.905555555555557,,
11.908333333333333,,
11.911111111111111,,
11.91388888888889,,
11.916666666666666,,
11.919444444444444,,
11.922222222222224,,
11.925,,
11.927777777777775,,
11.930555555555557,,
11.933333333333334,,
11.936111111111112,,
11.938888888888888,,
11.941666666666666,,
11.944444444444443,,
11.947222222222225,,
11.95,,
11.952777777777776,,
11.955555555555556,,
11.958333333333334,,
11.96111111111111,,
11.963888888888889,,
11.966666666666667,,
11.969444444444443,,
11.972222222222221,,
11.975,,
11.977777777777776,,
11.980555555555556,,
11.983333333333333,,
11.98611111111111,,
11.988888888888889,,
11.991666666666667,,
11.994444444444444,,
11.997222222222224,,
12,,
12.002777777777776,,
12.005555555555556,,
12.008333333333333,,
12.011111111111111,,
12.01388888888889,,
12.016666666666667,,
12.019444444444444,,
12.022222222222224,,
12.025,,
12.027777777777779,,
12.030555555555557,,
12.033333333333333,,
12.036111111111111,,
12.03888888888889,,
12.041666666666666,,
12.044444444444444,,
12.047222222222224,,
12.05,,
12.052777777777775,,
12.055555555555557,,
12.058333333333334,,
12.061111111111112,,
12.063888888888888,,
12.066666666666666,,
12.069444444444443,,
12.072222222222225,,
12.075,,
12.077777777777776,,
12.080555555555556,,
12.083333333333334,,
12.08611111111111,,
12.088888888888889,,
12.091666666666667,,
12.094444444444443,,
12.097222222222221,,
12.1,,
12.102777777777776,,
12.105555555555556,,
12.108333333333333,,
12.11111111111111,,
12.113888888888889,,
12.116666666666667,,
12.119444444444444,,
12.122222222222224,,
12.125,,
12.127777777777776,,
12.130555555555556,,
12.133333333333333,,
12.136111111111111,,
12.13888888888889,,
12.141666666666667,,
12.144444444444444,,
12.147222222222224,,
12.15,,
12.152777777777779,,
12.155555555555557,,
12.158333333333333,,
12.161111111111111,,
12.16388888888889,,
12.166666666666666,,
12.169444444444444,,
12.172222222222224,,
12.175,,
12.177777777777775,,
12.180555555555557,,
12.183333333333334,,
12.186111111111112,,
12.188888888888888,,
12.191666666666666,,
12.194444444444443,,
12.197222222222225,,
12.2,,
12.202777777777776,,
12.205555555555556,,
12.208333333333334,,
12.21111111111111,,
12.213888888888889,,
12.216666666666667,,
12.219444444444443,,
12.222222222222221,,
12.225,,
12.227777777777776,,
12.230555555555556,,
12.233333333333333,,
12.23611111111111,,
12.238888888888889,,
12.241666666666667,,
12.244444444444444,,
12.247222222222224,,
12.25,,
12.252777777777776,,
12.255555555555556,,
12.258333333333333,,
12.261111111111111,,
12.26388888888889,,
12.266666666666667,,
12.269444444444444,,
12.272222222222224,,
12.275,,
12.277777777777779,,
12.280555555555557,,
12.283333333333333,,
12.286111111111111,,
12.28888888888889,,
12.291666666666666,,
12.294444444444444,,
12.297222222222224,,
12.3,,
12.302777777777775,,
12.305555555555557,,
12.308333333333334,,
12.311111111111112,,
12.313888888888888,,
12.316666666666666,,
12.319444444444443,,
12.322222222222225,,
12.325,,
12.327777777777776,,
12.330555555555556,,
12.333333333333334,,
12.33611111111111,,
12.338888888888889,,
12.341666666666667,,
12.344444444444443,,
12.347222222222221,,
12.35,,
12.352777777777776,,
12.355555555555556,,
12.358333333333333,,
12.36111111111111,,
12.363888888888889,,
12.366666666666667,,
12.369444444444444,,
12.372222222222224,,
12.375,,
12.377777777777776,,
12.380555555555556,,
12.383333333333333,,
12.386111111111111,,
12.38888888888889,,
12.391666666666667,,
12.394444444444444,,
12.397222222222224,,
12.4,,
12.402777777777779,,
12.405555555555557,,
12.408333333333333,,
12.411111111111111,,
12.41388888888889,,
12.416666666666666,,
12.419444444444444,,
12.422222222222224,,
12.425,,
12.427777777777775,,
12.430555555555557,,
12.433333333333334,,
12.436111111111112,,
12.438888888888888,,
12.441666666666666,,
12.444444444444443,,
12.447222222222225,,
12.45,,
12.452777777777776,,
12.455555555555556,,
12.458333333333334,,
12.46111111111111,,
12.463888888888889,,
12.466666666666667,,
12.469444444444443,,
12.472222222222221,,
12.475,,
12.477777777777776,,
12.480555555555556,,
12.483333333333333,,
12.48611111111111,,
12.488888888888889,,
12.491666666666667,,
12.494444444444444,,
12.497222222222224,,
12.5,,
12.502777777777776,,
12.505555555555556,,
12.508333333333333,,
12.511111111111111,,
12.51388888888889,,
12.516666666666667,,
12.519444444444444,,
12.522222222222224,,
12.525,,
12.527777777777779,,
12.530555555555557,,
12.533333333333333,,
12.536111111111111,,
12.53888888888889,,
12.541666666666666,,
12.544444444444444,,
12.547222222222224,,
12.55,,
12.552777777777775,,
12.555555555555557,,
12.558333333333334,,
12.561111111111112,,
12.563888888888888,,
12.566666666666666,,
12.569444444444443,,
12.572222222222225,,
12.575,,
12.577777777777776,,
12.580555555555556,,
12.583333333333334,,
12.58611111111111,,
12.588888888888889,,
12.591666666666667,,
12.594444444444443,,
12.597222222222221,,
12.6,,
12.602777777777776,,
12.605555555555556,,
12.608333333333333,,
12.61111111111111,,
12.613888888888889,,
12.616666666666667,,
12.619444444444444,,
12.622222222222224,,
12.625,,
12.627777777777776,,
12.630555555555556,,
12.633333333333333,,
12.636111111111111,,
12.63888888888889,,
12.641666666666667,,
12.644444444444444,,
12.647222222222224,,
12.65,,
12.652777777777779,,
12.655555555555557,,
12.658333333333333,,
12.661111111111111,,
12.66388888888889,,
12.666666666666666,,
12.669444444444444,,
12.672222222222224,,
12.675,,
12.677777777777775,,
12.680555555555557,,
12.683333333333334,,
12.686111111111112,,
12.688888888888888,,
12.691666666666666,,
12.694444444444443,,
12.697222222222225,,
12.7,,
12.702777777777776,,
12.705555555555556,,
12.708333333333334,,
12.71111111111111,,
12.713888888888889,,
12.716666666666667,,
12.719444444444443,,
12.722222222222221,,
12.725,,
12.727777777777776,,
12.730555555555556,,
12.733333333333333,,
12.73611111111111,,
12.738888888888889,,
12.741666666666667,,
12.744444444444444,,
12.747222222222224,,
12.75,,
12.752777777777776,,
12.755555555555556,,
12.758333333333333,,
12.761111111111111,,
12.76388888888889,,
12.766666666666667,,
12.769444444444444,,
12.772222222222224,,
12.775,,
12.777777777777779,,
12.780555555555557,,
12.783333333333333,,
12.786111111111111,,
12.78888888888889,,
12.791666666666666,,
12.794444444444444,,
12.797222222222224,,
12.8,,
12.802777777777775,,
12.805555555555557,,
12.808333333333334,,
12.811111111111112,,
12.813888888888888,,
12.816666666666666,,
12.819444444444443,,
12.822222222222225,,
12.825,,
12.827777777777776,,
12.830555555555556,,
12.833333333333334,,
12.83611111111111,,
12.838888888888889,,
12.841666666666667,,
12.844444444444443,,
12.847222222222221,,
12.85,,
12.852777777777776,,
12.855555555555556,,
12.858333333333333,,
12.86111111111111,,
12.863888888888889,,
12.866666666666667,,
12.869444444444444,,
12.872222222222224,,
12.875,,
12.877777777777776,,
12.880555555555556,,
12.883333333333333,,
12.886111111111111,,
12.88888888888889,,
12.891666666666667,,
12.894444444444444,,
12.897222222222224,,
12.9,,
12.902777777777779,,
12.905555555555557,,
12.908333333333333,,
12.911111111111111,,
12.91388888888889,,
12.916666666666666,,
12.919444444444444,,
12.922222222222224,,
12.925,,
12.927777777777775,,
12.930555555555557,,
12.933333333333334,,
12.936111111111112,,
12.938888888888888,,
12.941666666666666,,
12.944444444444443,,
12.947222222222225,,
12.95,,
12.952777777777776,,
12.955555555555556,,
12.958333333333334,,
12.96111111111111,,
12.963888888888889,,
12.966666666666667,,
12.969444444444443,,
12.972222222222221,,
12.975,,
12.977777777777776,,
12.980555555555556,,
12.983333333333333,,
12.98611111111111,,
12.988888888888889,,
12.991666666666667,,
12.994444444444444,,
12.997222222222224,,
13,,
13.002777777777776,,
13.005555555555556,,
13.008333333333333,,
13.011111111111111,,
13.01388888888889,,
13.016666666666667,,
13.019444444444444,,
13.022222222222224,,
13.025,,
13.027777777777779,,
13.030555555555557,,
13.033333333333333,,
13.036111111111111,,
13.03888888888889,,
13.041666666666666,,
13.044444444444444,,
13.047222222222224,,
13.05,,
13.052777777777775,,
13.055555555555557,,
13.058333333333334,,
13.061111111111112,,
13.063888888888888,,
13.066666666666666,,
13.069444444444443,,
13.072222222222225,,
13.075,,
13.077777777777776,,
13.080555555555556,,
13.083333333333334,,
13.08611111111111,,
13.088888888888889,,
13.091666666666667,,
13.094444444444443,,
13.097222222222221,,
13.1,,
13.102777777777776,,
13.105555555555556,,
13.108333333333333,,
13.11111111111111,,
13.113888888888889,,
13.116666666666667,,
13.119444444444444,,
13.122222222222224,,
13.125,,
13.127777777777776,,
13.130555555555556,,
13.133333333333333,,
13.136111111111111,,
13.13888888888889,,
13.141666666666667,,
13.144444444444444,,
13.147222222222224,,
13.15,,
13.152777777777779,,
13.155555555555557,,
13.158333333333333,,
13.161111111111111,,
13.16388888888889,,
13.166666666666666,,
13.169444444444444,,
13.172222222222224,,
13.175,,
13.177777777777775,,
13.180555555555557,,
13.183333333333334,,
13.186111111111112,,
13.188888888888888,,
13.191666666666666,,
13.194444444444443,,
13.197222222222225,,
13.2,,
13.202777777777776,,
13.205555555555556,,
13.208333333333334,,
13.21111111111111,,
13.213888888888889,,
13.216666666666667,,
13.219444444444443,,
13.222222222222221,,
13.225,,
13.227777777777776,,
13.230555555555556,,
13.233333333333333,,
13.23611111111111,,
13.238888888888889,,
13.241666666666667,,
13.244444444444444,,
13.247222222222224,,
13.25,,
13.252777777777776,,
13.255555555555556,,
13.258333333333333,,
13.261111111111111,,
13.26388888888889,,
13.266666666666667,,
13.269444444444444,,
13.272222222222224,,
13.275,,
13.277777777777779,,
13.280555555555557,,
13.283333333333333,,
13.286111111111111,,
13.28888888888889,,
13.291666666666666,,
13.294444444444444,,
13.297222222222224,,
13.3,,
13.302777777777775,,
13.305555555555557,,
13.308333333333334,,
13.311111111111112,,
13.313888888888888,,
13.316666666666666,,
13.319444444444443,,
13.322222222222225,,
13.325,,
13.327777777777776,,
13.330555555555556,,
13.333333333333334,,
13.33611111111111,,
13.338888888888889,,
13.341666666666667,,
13.344444444444443,,
13.347222222222221,,
13.35,,
13.352777777777776,,
13.355555555555556,,
13.358333333333333,,
13.36111111111111,,
13.363888888888889,,
13.366666666666667,,
13.369444444444444,,
13.372222222222224,,
13.375,,
13.377777777777776,,
13.380555555555556,,
13.383333333333333,,
13.386111111111111,,
13.38888888888889,,
13.391666666666667,,
13.394444444444444,,
13.397222222222224,,
13.4,,
13.402777777777779,,
13.405555555555557,,
13.408333333333333,,
13.411111111111111,,
13.41388888888889,,
13.416666666666666,,
13.419444444444444,,
13.422222222222224,,
13.425,,
13.427777777777775,,
13.430555555555557,,
13.433333333333334,,
13.436111111111112,,
13.438888888888888,,
13.441666666666666,,
13.444444444444443,,
13.447222222222225,,
13.45,,
13.452777777777776,,
13.455555555555556,,
13.458333333333334,,
13.46111111111111,,
13.463888888888889,,
13.466666666666667,,
13.469444444444443,,
13.472222222222221,,
13.475,,
13.477777777777776,,
13.480555555555556,,
13.483333333333333,,
13.48611111111111,,
13.488888888888889,,
13.491666666666667,,
13.494444444444444,,
13.497222222222224,,
13.5,,
13.502777777777776,,
13.505555555555556,,
13.508333333333333,,
13.511111111111111,,
13.51388888888889,,
13.516666666666667,,
13.519444444444444,,
13.522222222222224,,
13.525,,
13.527777777777779,,
13.530555555555557,,
13.533333333333333,,
13.536111111111111,,
13.53888888888889,,
13.541666666666666,,
13.544444444444444,,
13.547222222222224,,
13.55,,
13.552777777777775,,
13.555555555555557,,
13.558333333333334,,
13.561111111111112,,
13.563888888888888,,
13.566666666666666,,
13.569444444444443,,
13.572222222222225,,
13.575,,
13.577777777777776,,
13.580555555555556,,
13.583333333333334,,
13.58611111111111,,
13.588888888888889,,
13.591666666666667,,
13.594444444444443,,
13.597222222222221,,
13.6,,
13.602777777777776,,
13.605555555555556,,
13.608333333333333,,
13.61111111111111,,
13.613888888888889,,
13.616666666666667,,
13.619444444444444,,
13.622222222222224,,
13.625,,
13.627777777777776,,
13.630555555555556,,
13.633333333333333,,
13.636111111111111,,
13.63888888888889,,
13.641666666666667,,
13.644444444444444,,
13.647222222222224,,
13.65,,
13.652777777777779,,
13.655555555555557,,
13.658333333333333,,
13.661111111111111,,
13.66388888888889,,
13.666666666666666,,
13.669444444444444,,
13.672222222222224,,
13.675,,
13.677777777777775,,
13.680555555555557,,
13.683333333333334,,
13.686111111111112,,
13.688888888888888,,
13.691666666666666,,
13.694444444444443,,
13.697222222222225,,
13.7,,
13.702777777777776,,
13.705555555555556,,
13.708333333333334,,
13.71111111111111,,
13.713888888888889,,
13.716666666666667,,
13.719444444444443,,
13.722222222222221,,
13.725,,
13.727777777777776,,
13.730555555555556,,
13.733333333333333,,
13.73611111111111,,
13.738888888888889,,
13.741666666666667,,
13.744444444444444,,
13.747222222222224,,
13.75,,
13.752777777777776,,
13.755555555555556,,
13.758333333333333,,
13.761111111111111,,
13.76388888888889,,
13.766666666666667,,
13.769444444444444,,
13.772222222222224,,
13.775,,
13.777777777777779,,
13.780555555555557,,
13.783333333333333,,
13.786111111111111,,
13.78888888888889,,
13.791666666666666,,
13.794444444444444,,
13.797222222222224,,
13.8,,
13.802777777777775,,
13.805555555555557,,
13.808333333333334,,
13.811111111111112,,
13.813888888888888,,
13.816666666666666,,
13.819444444444443,,
13.822222222222225,,
13.825,,
13.827777777777776,,
13.830555555555556,,
13.833333333333334,,
13.83611111111111,,
13.838888888888889,,
13.841666666666667,,
13.844444444444443,,
13.847222222222221,,
13.85,,
13.852777777777776,,
13.855555555555556,,
13.858333333333333,,
13.86111111111111,,
13.863888888888889,,
13.866666666666667,,
13.869444444444444,,
13.872222222222224,,
13.875,,
13.877777777777776,,
13.880555555555556,,
13.883333333333333,,
13.886111111111111,,
13.88888888888889,,
13.891666666666667,,
13.894444444444444,,
13.897222222222224,,
13.9,,
13.902777777777779,,
13.905555555555557,,
13.908333333333333,,
13.911111111111111,,
13.91388888888889,,
13.916666666666666,,
13.919444444444444,,
13.922222222222224,,
13.925,,
13.927777777777775,,
13.930555555555557,,
13.933333333333334,,
13.936111111111112,,
13.938888888888888,,
13.941666666666666,,
13.944444444444443,,
13.947222222222225,,
13.95,,
13.952777777777776,,
13.955555555555556,,
13.958333333333334,,
13.96111111111111,,
13.963888888888889,,
13.966666666666667,,
13.969444444444443,,
13.972222222222221,,
13.975,,
13.977777777777776,,
13.980555555555556,,
13.983333333333333,,
13.98611111111111,,
13.988888888888889,,
13.991666666666667,,
13.994444444444444,,
13.997222222222224,,
14,,
14.002777777777776,,
14.005555555555556,,
14.008333333333333,,
14.011111111111111,,
14.01388888888889,,
14.016666666666667,,
14.019444444444444,,
14.022222222222224,,
14.025,,
14.027777777777779,,
14.030555555555557,,
14.033333333333333,,
14.036111111111111,,
14.03888888888889,,
14.041666666666666,,
14.044444444444444,,
14.047222222222224,,
14.05,,
14.052777777777775,,
14.055555555555557,,
14.058333333333334,,
14.061111111111112,,
14.063888888888888,,
14.066666666666666,,
14.069444444444443,,
14.072222222222225,,
14.075,,
14.077777777777776,,
14.080555555555556,,
14.083333333333334,,
14.08611111111111,,
14.088888888888889,,
14.091666666666667,,
14.094444444444443,,
14.097222222222221,,
14.1,,
14.102777777777776,,
14.105555555555556,,
14.108333333333333,,
14.11111111111111,,
14.113888888888889,,
14.116666666666667,,
14.119444444444444,,
14.122222222222224,,
14.125,,
14.127777777777776,,
14.130555555555556,,
14.133333333333333,,
14.136111111111111,,
14.13888888888889,,
14.141666666666667,,
14.144444444444444,,
14.147222222222224,,
14.15,,
14.152777777777779,,
14.155555555555557,,
14.158333333333333,,
14.161111111111111,,
14.16388888888889,,
14.166666666666666,,
14.169444444444444,,
14.172222222222224,,
14.175,,
14.177777777777775,,
14.180555555555557,,
14.183333333333334,,
14.186111111111112,,
14.188888888888888,,
14.191666666666666,,
14.194444444444443,,
14.197222222222225,,
14.2,,
14.202777777777776,,
14.205555555555556,,
14.208333333333334,,
14.21111111111111,,
14.213888888888889,,
14.216666666666667,,
14.219444444444443,,
14.222222222222221,,
14.225,,
14.227777777777776,,
14.230555555555556,,
14.233333333333333,,
14.23611111111111,,
14.238888888888889,,
14.241666666666667,,
14.244444444444444,,
14.247222222222224,,
14.25,,
14.252777777777776,,
14.255555555555556,,
14.258333333333333,,
14.261111111111111,,
14.26388888888889,,
14.266666666666667,,
14.269444444444444,,
14.272222222222224,,
14.275,,
14.277777777777779,,
14.280555555555557,,
14.283333333333333,,
14.286111111111111,,
14.28888888888889,,
14.291666666666666,,
14.294444444444444,,
14.297222222222224,,
14.3,,
14.302777777777775,,
14.305555555555557,,
14.308333333333334,,
14.311111111111112,,
14.313888888888888,,
14.316666666666666,,
14.319444444444443,,
14.322222222222225,,
14.325,,
14.327777777777776,,
14.330555555555556,,
14.333333333333334,,
14.33611111111111,,
14.338888888888889,,
14.341666666666667,,
14.344444444444443,,
14.347222222222221,,
14.35,,
14.352777777777776,,
14.355555555555556,,
14.358333333333333,,
14.36111111111111,,
14.363888888888889,,
14.366666666666667,,
14.369444444444444,,
14.372222222222224,,
14.375,,
14.377777777777776,,
14.380555555555556,,
14.383333333333333,,
14.386111111111111,,
14.38888888888889,,
14.391666666666667,,
14.394444444444444,,
14.397222222222224,,
14.4,,
14.402777777777779,,
14.405555555555557,,
14.408333333333333,,
14.411111111111111,,
14.41388888888889,,
14.416666666666666,,
14.419444444444444,,
14.422222222222224,,
14.425,,
14.427777777777775,,
14.430555555555557,,
14.433333333333334,,
14.436111111111112,,
14.438888888888888,,
14.441666666666666,,
14.444444444444443,,
14.447222222222225,,
14.45,,
14.452777777777776,,
14.455555555555556,,
14.458333333333334,,
14.46111111111111,,
14.463888888888889,,
14.466666666666667,,
14.469444444444443,,
14.472222222222221,,
14.475,,
14.477777777777776,,
14.480555555555556,,
14.483333333333333,,
14.48611111111111,,
14.488888888888889,,
14.491666666666667,,
14.494444444444444,,
14.497222222222224,,
14.5,,
14.502777777777776,,
14.505555555555556,,
14.508333333333333,,
14.511111111111111,,
14.51388888888889,,
14.516666666666667,,
14.519444444444444,,
14.522222222222224,,
14.525,,
14.527777777777779,,
14.530555555555557,,
14.533333333333333,,
14.536111111111111,,
14.53888888888889,,
14.541666666666666,,
14.544444444444444,,
14.547222222222224,,
14.55,,
14.552777777777775,,
14.555555555555557,,
14.558333333333334,,
14.561111111111112,,
14.563888888888888,,
14.566666666666666,,
14.569444444444443,,
14.572222222222225,,
14.575,,
14.577777777777776,,
14.580555555555556,,
14.583333333333334,,
14.58611111111111,,
14.588888888888889,,
14.591666666666667,,
14.594444444444443,,
14.597222222222221,,
14.6,,
14.602777777777776,,
14.605555555555556,,
14.608333333333333,,
14.61111111111111,,
14.613888888888889,,
14.616666666666667,,
14.619444444444444,,
14.622222222222224,,
14.625,,
14.627777777777776,,
14.630555555555556,,
14.633333333333333,,
14.636111111111111,,
14.63888888888889,,
14.641666666666667,,
14.644444444444444,,
14.647222222222224,,
14.65,,
14.652777777777779,,
14.655555555555557,,
14.658333333333333,,
14.661111111111111,,
14.66388888888889,,
14.666666666666666,,
14.669444444444444,,
14.672222222222224,,
14.675,,
14.677777777777775,,
14.680555555555557,,
14.683333333333334,,
14.686111111111112,,
14.688888888888888,,
14.691666666666666,,
14.694444444444443,,
14.697222222222225,,
14.7,,
14.702777777777776,,
14.705555555555556,,
14.708333333333334,,
14.71111111111111,,
14.713888888888889,,
14.716666666666667,,
14.719444444444443,,
14.722222222222221,,
14.725,,
14.727777777777776,,
14.730555555555556,,
14.733333333333333,,
14.73611111111111,,
14.738888888888889,,
14.741666666666667,,
14.744444444444444,,
14.747222222222224,,
14.75,,
14.752777777777776,,
14.755555555555556,,
14.758333333333333,,
14.761111111111111,,
14.76388888888889,,
14.766666666666667,,
14.769444444444444,,
14.772222222222224,,
14.775,,
14.777777777777779,,
14.780555555555557,,
14.783333333333333,,
14.786111111111111,,
14.78888888888889,,
14.791666666666666,,
14.794444444444444,,
14.797222222222224,,
14.8,,
14.802777777777775,,
14.805555555555557,,
14.808333333333334,,
14.811111111111112,,
14.813888888888888,,
14.816666666666666,,
14.819444444444443,,
14.822222222222225,,
14.825,,
14.827777777777776,,
14.830555555555556,,
14.833333333333334,,
14.83611111111111,,
14.838888888888889,,
14.841666666666667,,
14.844444444444443,,
14.847222222222221,,
14.85,,
14.852777777777776,,
14.855555555555556,,
14.858333333333333,,
14.86111111111111,,
14.863888888888889,,
14.866666666666667,,
14.869444444444444,,
14.872222222222224,,
14.875,,
14.877777777777776,,
14.880555555555556,,
14.883333333333333,,
14.886111111111111,,
14.88888888888889,,
14.891666666666667,,
14.894444444444444,,
14.897222222222224,,
14.9,,
14.902777777777779,,
14.905555555555557,,
14.908333333333333,,
14.911111111111111,,
14.91388888888889,,
14.916666666666666,,
14.919444444444444,,
14.922222222222224,,
14.925,,
14.927777777777775,,
14.930555555555557,,
14.933333333333334,,
14.936111111111112,,
14.938888888888888,,
14.941666666666666,,
14.944444444444443,,
14.947222222222225,,
14.95,,
14.952777777777776,,
14.955555555555556,,
14.958333333333334,,
14.96111111111111,,
14.963888888888889,,
14.966666666666667,,
14.969444444444443,,
14.972222222222221,,
14.975,,
14.977777777777776,,
14.980555555555556,,
14.983333333333333,,
14.98611111111111,,
14.988888888888889,,
14.991666666666667,,
14.994444444444444,,
14.997222222222224,,
15,,
15.002777777777776,,
15.005555555555556,,
15.008333333333333,,
15.011111111111111,,
15.01388888888889,,
15.016666666666667,,
15.019444444444444,,
15.022222222222224,,
15.025,,
15.027777777777779,,
15.030555555555557,,
15.033333333333333,,
15.036111111111111,,
15.03888888888889,,
15.041666666666666,,
15.044444444444444,,
15.047222222222224,,
15.05,,
15.052777777777775,,
15.055555555555557,,
15.058333333333334,,
15.061111111111112,,
15.063888888888888,,
15.066666666666666,,
15.069444444444443,,
15.072222222222225,,
15.075,,
15.077777777777776,,
15.080555555555556,,
15.083333333333334,,
15.08611111111111,,
15.088888888888889,,
15.091666666666667,,
15.094444444444443,,
15.097222222222221,,
15.1,,
15.102777777777776,,
15.105555555555556,,
15.108333333333333,,
15.11111111111111,,
15.113888888888889,,
15.116666666666667,,
15.119444444444444,,
15.122222222222224,,
15.125,,
15.127777777777776,,
15.130555555555556,,
15.133333333333333,,
15.136111111111111,,
15.13888888888889,,
15.141666666666667,,
15.144444444444444,,
15.147222222222224,,
15.15,,
15.152777777777779,,
15.155555555555557,,
15.158333333333333,,
15.161111111111111,,
15.16388888888889,,
15.166666666666666,,
15.169444444444444,,
15.172222222222224,,
15.175,,
15.177777777777775,,
15.180555555555557,,
15.183333333333334,,
15.186111111111112,,
15.188888888888888,,
15.191666666666666,,
15.194444444444443,,
15.197222222222225,,
15.2,,
15.202777777777776,,
15.205555555555556,,
15.208333333333334,,
15.21111111111111,,
15.213888888888889,,
15.216666666666667,,
15.219444444444443,,
15.222222222222221,,
15.225,,
15.227777777777776,,
15.230555555555556,,
15.233333333333333,,
15.23611111111111,,
15.238888888888889,,
15.241666666666667,,
15.244444444444444,,
15.247222222222224,,
15.25,,
15.252777777777776,,
15.255555555555556,,
15.258333333333333,,
15.261111111111111,,
15.26388888888889,,
15.266666666666667,,
15.269444444444444,,
15.272222222222224,,
15.275,,
15.277777777777779,,
15.280555555555557,,
15.283333333333333,,
15.286111111111111,,
15.28888888888889,,
15.291666666666666,,
15.294444444444444,,
15.297222222222224,,
15.3,,
15.302777777777775,,
15.305555555555557,,
15.308333333333334,,
15.311111111111112,,
15.313888888888888,,
15.316666666666666,,
15.319444444444443,,
15.322222222222225,,
15.325,,
15.327777777777776,,
15.330555555555556,,
15.333333333333334,,
15.33611111111111,,
15.338888888888889,,
15.341666666666667,,
15.344444444444443,,
