time,MLII,V1
0,-0.075,0.32
0.002777778,-0.075,0.31
0.005555556,-0.085,0.31
0.008333333,-0.09,0.315
0.011111111111176797,-0.08,0.325
0.013888888888914153,-0.07,0.33
0.016666667,-0.07,0.32
0.019444444444388864,-0.065,0.31
0.022222222,-0.085,0.31
0.025,-0.085,0.325
0.027777777777828305,-0.07,0.325
0.030555556,-0.065,0.345
0.033333333,-0.065,0.34
0.036111111,-0.08,0.32
0.038888889,-0.1,0.315
0.041666667,-0.105,0.315
0.044444444444479814,-0.08,0.34
0.047222222,-0.06,0.36
0.049999999999954525,-0.065,0.335
0.052777778,-0.08,0.325
0.055555556,-0.085,0.32
0.058333333333393966,-0.08,0.31
0.061111111,-0.07,0.33
0.063888889,-0.06,0.35
0.066666667,-0.065,0.33
0.069444444,-0.085,0.315
0.072222222,-0.095,0.32
0.075,-0.09,0.32
0.077777778,-0.095,0.325
0.080555556,-0.085,0.345
0.083333333,-0.095,0.31
0.086111111,-0.1,0.3
0.088888889,-0.11,0.29
0.091666667,-0.115,0.305
0.094444444,-0.11,0.31
0.097222222,-0.095,0.315
0.1,-0.11,0.31
0.10277777777787378,-0.125,0.285
0.10555555555561114,-0.14,0.275
0.10833333333334849,-0.14,0.285
0.11111111111108585,-0.135,0.29
0.1138888888888232,-0.135,0.295
0.11666666666656056,-0.14,0.285
0.11944444444452529,-0.155,0.27
0.12222222222226264,-0.175,0.26
0.125,-0.185,0.27
0.12777777777773736,-0.175,0.275
0.1305555555554747,-0.175,0.275
0.13333333333343944,-0.17,0.275
0.1361111111111768,-0.19,0.255
0.13888888888891415,-0.215,0.255
0.1416666666666515,-0.215,0.265
0.14444444444438886,-0.215,0.285
0.14722222222212622,-0.22,0.29
0.15000000000009095,-0.205,0.28
0.1527777777778283,-0.22,0.25
0.15555555555556566,-0.23,0.245
0.15833333333330302,-0.23,0.26
0.16111111111104037,-0.22,0.27
0.16388888888877773,-0.21,0.27
0.16666666666674246,-0.235,0.27
0.1694444444444798,-0.23,0.255
0.17222222222221717,-0.24,0.25
0.17499999999995453,-0.235,0.25
0.17777777777769188,-0.225,0.255
0.18055555555542924,-0.215,0.255
0.18333333333339397,-0.22,0.255
0.18611111111113132,-0.22,0.23
0.18888888888886868,-0.225,0.215
0.19166666666660603,-0.22,0.23
0.19444444444457076,-0.22,0.24
0.19722222222230812,-0.205,0.235
0.20000000000004547,-0.195,0.225
0.20277777777778283,-0.205,0.21
0.2055555555555202,-0.21,0.195
0.20833333333325754,-0.205,0.2
0.21111111111122227,-0.2,0.22
0.21388888888895963,-0.19,0.21
0.21666666666669698,-0.19,0.205
0.21944444444443434,-0.195,0.195
0.2222222222221717,-0.205,0.19
0.22499999999990905,-0.2,0.205
0.22777777777787378,-0.17,0.215
0.23055555555561114,-0.145,0.215
0.2333333333333485,-0.14,0.215
0.23611111111108585,-0.135,0.205
0.2388888888888232,-0.13,0.21
0.24166666666656056,-0.12,0.21
0.2444444444445253,-0.08,0.205
0.24722222222226264,-0.05,0.215
0.25,-0.035,0.185
0.25277777777773736,-0.06,0.17
0.2555555555554747,-0.11,0.175
0.25833333333343944,-0.13,0.21
0.2611111111111768,-0.13,0.225
0.26388888888891415,-0.12,0.24
0.2666666666666515,-0.115,0.245
0.26944444444438886,-0.14,0.23
0.2722222222221262,-0.13,0.24
0.27500000000009095,-0.125,0.255
0.2777777777778283,-0.105,0.285
0.28055555555556566,-0.085,0.295
0.283333333,-0.085,0.27
0.2861111111110404,-0.08,0.24
0.28888888888877773,-0.085,0.215
0.29166666666674246,-0.1,0.2
0.2944444444444798,-0.11,0.185
0.29722222222221717,-0.12,0.19
0.2999999999999545,-0.13,0.19
0.3027777777776919,-0.15,0.17
0.30555555555542924,-0.175,0.15
0.30833333333339397,-0.17,0.16
0.3111111111111313,-0.155,0.17
0.3138888888888687,-0.16,0.185
0.31666666666660603,-0.165,0.155
0.31944444444457076,-0.165,0.155
0.3222222222223081,-0.18,0.135
0.3250000000000455,-0.175,0.155
0.32777777777778283,-0.165,0.16
0.3305555555555202,-0.15,0.165
0.33333333333325754,-0.155,0.175
0.33611111111122227,-0.155,0.155
0.3388888888889596,-0.165,0.15
0.341666667,-0.16,0.165
0.34444444444443434,-0.145,0.175
0.3472222222221717,-0.13,0.18
0.34999999999990905,-0.145,0.175
0.3527777777778738,-0.15,0.155
0.35555555555561114,-0.16,0.15
0.3583333333333485,-0.145,0.175
0.36111111111108585,-0.14,0.2
0.3638888888888232,-0.115,0.23
0.36666666666656056,-0.11,0.28
0.3694444444445253,-0.115,0.305
0.37222222222226264,-0.14,0.32
0.375,-0.14,0.295
0.37777777777773736,-0.135,0.22
0.3805555555554747,-0.145,0.1
0.38333333333343944,-0.185,-0.105
0.3861111111111768,-0.25,-0.335
0.38888888888891415,-0.24,-0.555
0.3916666666666515,-0.16,-0.715
0.39444444444438886,0.015,-0.855
0.3972222222221262,0.235,-0.915
0.40000000000009095,0.475,-0.89
0.4027777777778283,0.655,-0.79
0.40555555555556566,0.74,-0.635
0.408333333,0.75,-0.445
0.4111111111110404,0.62,-0.28
0.41388888888877773,0.36,-0.11
0.41666666666674246,0.03,0.04
0.4194444444444798,-0.2,0.15
0.42222222222221717,-0.305,0.24
0.4249999999999545,-0.29,0.285
0.4277777777776919,-0.205,0.29
0.43055555555542924,-0.14,0.29
0.43333333333339397,-0.105,0.285
0.4361111111111313,-0.115,0.26
0.4388888888888687,-0.115,0.26
0.44166666666660603,-0.125,0.27
0.44444444444457076,-0.135,0.265
0.4472222222223081,-0.135,0.265
0.4500000000000455,-0.125,0.25
0.45277777777778283,-0.14,0.235
0.4555555555555202,-0.155,0.24
0.45833333333325754,-0.15,0.25
0.46111111111122227,-0.14,0.255
0.4638888888889596,-0.125,0.26
0.466666667,-0.12,0.245
0.46944444444443434,-0.135,0.235
0.4722222222221717,-0.14,0.23
0.47499999999990905,-0.15,0.245
0.4777777777778738,-0.13,0.25
0.48055555555561114,-0.11,0.255
0.4833333333333485,-0.115,0.245
0.48611111111108585,-0.115,0.24
0.4888888888888232,-0.13,0.23
0.49166666666656056,-0.135,0.245
0.4944444444445253,-0.135,0.245
0.49722222222226264,-0.12,0.26
0.5,-0.12,0.26
0.5027777777777374,-0.14,0.245
0.5055555555554747,-0.15,0.23
0.5083333333334394,-0.16,0.24
0.5111111111111768,-0.145,0.24
0.5138888888889142,-0.135,0.265
0.5166666666666515,-0.125,0.25
0.5194444444443889,-0.15,0.24
0.5222222222221262,-0.165,0.23
0.525,-0.16,0.24
0.5277777777778283,-0.145,0.26
0.5305555555555657,-0.135,0.265
0.533333333,-0.14,0.255
0.5361111111110404,-0.15,0.25
0.5388888888887777,-0.165,0.25
0.5416666666667425,-0.17,0.255
0.5444444444444798,-0.15,0.28
0.5472222222222172,-0.135,0.26
0.5499999999999545,-0.14,0.26
0.5527777777776919,-0.15,0.245
0.5555555555554292,-0.15,0.25
0.558333333,-0.145,0.275
0.5611111111111313,-0.145,0.27
0.5638888888888687,-0.13,0.285
0.566666667,-0.135,0.265
0.5694444444445708,-0.155,0.245
0.5722222222223081,-0.155,0.245
0.5750000000000455,-0.16,0.25
0.5777777777777828,-0.16,0.27
0.5805555555555202,-0.15,0.275
0.5833333333332575,-0.15,0.27
0.5861111111112223,-0.16,0.255
0.5888888888889596,-0.175,0.245
0.591666667,-0.2,0.255
0.5944444444444343,-0.18,0.265
0.5972222222221717,-0.17,0.275
0.6,-0.165,0.26
0.6027777777778738,-0.165,0.255
0.6055555555556111,-0.185,0.24
0.6083333333333485,-0.185,0.24
0.6111111111110858,-0.185,0.255
0.6138888888888232,-0.18,0.26
0.6166666666665606,-0.18,0.24
0.6194444444445253,-0.21,0.24
0.6222222222222626,-0.22,0.22
0.625,-0.235,0.235
0.6277777777777374,-0.245,0.26
0.6305555555554747,-0.235,0.255
0.6333333333334394,-0.25,0.25
0.6361111111111768,-0.265,0.22
0.6388888888889142,-0.28,0.205
0.6416666666666515,-0.295,0.22
0.6444444444443889,-0.29,0.22
0.6472222222221262,-0.275,0.22
0.65,-0.285,0.22
0.6527777777778283,-0.3,0.215
0.6555555555555657,-0.31,0.205
0.658333333,-0.325,0.195
0.6611111111110404,-0.325,0.215
0.6638888888887777,-0.315,0.22
0.6666666666667425,-0.335,0.225
0.6694444444444798,-0.33,0.195
0.6722222222222172,-0.34,0.185
0.6749999999999545,-0.335,0.21
0.6777777777776919,-0.335,0.21
0.6805555555554292,-0.315,0.2
0.683333333,-0.31,0.2
0.6861111111111313,-0.33,0.175
0.6888888888888687,-0.345,0.18
0.691666667,-0.355,0.18
0.6944444444445708,-0.34,0.19
0.6972222222223081,-0.34,0.2
0.7000000000000455,-0.345,0.185
0.7027777777777828,-0.36,0.17
0.7055555555555202,-0.37,0.16
0.7083333333332575,-0.365,0.175
0.7111111111112223,-0.35,0.19
0.7138888888889596,-0.34,0.19
0.716666667,-0.345,0.175
0.7194444444444343,-0.365,0.165
0.7222222222221717,-0.37,0.155
0.725,-0.385,0.16
0.7277777777778738,-0.34,0.175
0.7305555555556111,-0.33,0.17
0.7333333333333485,-0.345,0.165
0.7361111111110858,-0.355,0.155
0.7388888888888232,-0.365,0.145
0.7416666666665606,-0.375,0.165
0.7444444444445253,-0.355,0.17
0.7472222222222626,-0.335,0.175
0.75,-0.345,0.17
0.7527777777777374,-0.355,0.145
0.7555555555554747,-0.37,0.135
0.7583333333334394,-0.375,0.15
0.7611111111111768,-0.35,0.165
0.7638888888889142,-0.345,0.175
0.7666666666666515,-0.35,0.16
0.7694444444443889,-0.36,0.155
0.7722222222221262,-0.37,0.125
0.775,-0.39,0.145
0.7777777777778283,-0.38,0.165
0.7805555555555657,-0.375,0.16
0.783333333,-0.365,0.145
0.7861111111110404,-0.35,0.135
0.7888888888887777,-0.365,0.12
0.7916666666667425,-0.37,0.13
0.7944444444444798,-0.355,0.155
0.7972222222222172,-0.345,0.16
0.7999999999999545,-0.345,0.15
0.8027777777776919,-0.355,0.13
0.8055555555554292,-0.385,0.13
0.808333333,-0.395,0.14
0.8111111111111313,-0.39,0.145
0.8138888888888687,-0.37,0.165
0.816666667,-0.38,0.14
0.8194444444445708,-0.37,0.125
0.8222222222223081,-0.38,0.125
0.8250000000000455,-0.38,0.12
0.8277777777777828,-0.37,0.145
0.8305555555555202,-0.345,0.155
0.8333333333332575,-0.36,0.145
0.8361111111112223,-0.37,0.125
0.8388888888889596,-0.385,0.125
0.841666667,-0.38,0.14
0.8444444444444343,-0.38,0.14
0.8472222222221717,-0.375,0.145
0.85,-0.37,0.13
0.8527777777778738,-0.395,0.12
0.8555555555556111,-0.4,0.125
0.8583333333333485,-0.4,0.14
0.8611111111110858,-0.37,0.14
0.8638888888888232,-0.36,0.155
0.8666666666665606,-0.365,0.145
0.8694444444445253,-0.4,0.14
0.8722222222222626,-0.395,0.115
0.875,-0.375,0.13
0.8777777777777374,-0.375,0.135
0.8805555555554747,-0.365,0.15
0.8833333333334394,-0.355,0.125
0.8861111111111768,-0.38,0.12
0.8888888888889142,-0.385,0.105
0.8916666666666515,-0.39,0.125
0.8944444444443889,-0.39,0.135
0.8972222222221262,-0.38,0.14
0.9,-0.395,0.135
0.9027777777778283,-0.4,0.13
0.9055555555555657,-0.415,0.115
0.908333333,-0.41,0.115
0.9111111111110404,-0.4,0.13
0.9138888888887777,-0.385,0.135
0.9166666666667425,-0.385,0.125
0.9194444444444798,-0.41,0.125
0.9222222222222172,-0.415,0.115
0.9249999999999545,-0.405,0.12
0.9277777777776919,-0.4,0.13
0.9305555555554292,-0.395,0.14
0.933333333,-0.4,0.13
0.9361111111111313,-0.41,0.12
0.9388888888888687,-0.415,0.105
0.941666667,-0.41,0.11
0.9444444444445708,-0.405,0.12
0.9472222222223081,-0.39,0.14
0.9500000000000455,-0.41,0.135
0.9527777777777828,-0.4,0.125
0.9555555555555202,-0.415,0.115
0.9583333333332575,-0.425,0.115
0.9611111111112223,-0.415,0.14
0.9638888888889596,-0.4,0.14
0.966666667,-0.405,0.13
0.9694444444444343,-0.41,0.11
0.9722222222221717,-0.41,0.115
0.975,-0.405,0.135
0.9777777777778738,-0.39,0.135
0.9805555555556111,-0.385,0.125
0.9833333333333485,-0.41,0.12
0.9861111111110858,-0.41,0.11
0.9888888888888232,-0.425,0.1
0.9916666666665606,-0.43,0.115
0.9944444444445253,-0.42,0.12
0.9972222222222626,-0.42,0.125
1,-0.405,0.125
1.0027777777777374,-0.425,0.105
1.0055555555554747,-0.44,0.09
1.0083333333334394,-0.435,0.095
1.0111111111111768,-0.425,0.125
1.0138888888889142,-0.405,0.135
1.0166666666666515,-0.41,0.115
1.0194444444443889,-0.425,0.11
1.0222222222221262,-0.425,0.105
1.025000000000091,-0.43,0.105
1.0277777777778283,-0.43,0.125
1.0305555555555657,-0.425,0.12
1.033333333333303,-0.435,0.12
1.0361111111110404,-0.43,0.11
1.0388888888887777,-0.46,0.1
1.0416666666667425,-0.445,0.11
1.0444444444444798,-0.435,0.12
1.0472222222222172,-0.405,0.135
1.0499999999999545,-0.425,0.115
1.0527777777776919,-0.43,0.105
1.0555555555554292,-0.445,0.1
1.058333333333394,-0.45,0.12
1.0611111111111313,-0.435,0.125
1.0638888888888687,-0.435,0.14
1.066666666666606,-0.44,0.125
1.0694444444445708,-0.465,0.115
1.0722222222223081,-0.46,0.11
1.0750000000000455,-0.455,0.105
1.0777777777777828,-0.44,0.115
1.0805555555555202,-0.45,0.125
1.0833333333332575,-0.45,0.125
1.0861111111112223,-0.455,0.11
1.0888888888889596,-0.48,0.1
1.091666666666697,-0.475,0.105
1.0944444444444343,-0.465,0.12
1.0972222222221717,-0.44,0.115
1.099999999999909,-0.435,0.115
1.1027777777778738,-0.455,0.11
1.1055555555556111,-0.47,0.11
1.1083333333333485,-0.485,0.125
1.1111111111110858,-0.47,0.125
1.1138888888888232,-0.455,0.13
1.1166666666665606,-0.46,0.115
1.1194444444445253,-0.465,0.1
1.1222222222222626,-0.485,0.1
1.125,-0.48,0.115
1.1277777777777374,-0.475,0.13
1.1305555555554747,-0.465,0.135
1.1333333333334394,-0.45,0.13
1.1361111111111768,-0.47,0.12
1.1388888888889142,-0.485,0.1
1.1416666666666515,-0.48,0.11
1.1444444444443889,-0.475,0.12
1.1472222222221262,-0.46,0.135
1.150000000000091,-0.465,0.125
1.1527777777778283,-0.48,0.11
1.1555555555555657,-0.485,0.105
1.158333333333303,-0.5,0.115
1.1611111111110404,-0.47,0.125
1.1638888888887777,-0.455,0.13
1.1666666666667425,-0.455,0.12
1.1694444444444798,-0.465,0.11
1.1722222222222172,-0.47,0.1
1.1749999999999545,-0.475,0.115
1.1777777777776919,-0.475,0.125
1.1805555555554292,-0.45,0.135
1.183333333333394,-0.45,0.12
1.1861111111111313,-0.475,0.095
1.1888888888888687,-0.485,0.1
1.191666666666606,-0.485,0.11
1.1944444444445708,-0.465,0.13
1.1972222222223081,-0.46,0.14
1.2000000000000455,-0.465,0.115
1.2027777777777828,-0.465,0.1
1.2055555555555202,-0.49,0.1
1.2083333333332575,-0.46,0.105
1.2111111111112223,-0.47,0.135
1.2138888888889596,-0.455,0.14
1.216666666666697,-0.45,0.125
1.2194444444444343,-0.45,0.12
1.2222222222221717,-0.465,0.11
1.224999999999909,-0.49,0.115
1.2277777777778738,-0.455,0.115
1.2305555555556111,-0.44,0.14
1.2333333333333485,-0.44,0.115
1.2361111111110858,-0.46,0.1
1.2388888888888232,-0.46,0.1
1.2416666666665606,-0.46,0.125
1.2444444444445253,-0.445,0.13
1.2472222222222626,-0.44,0.13
1.25,-0.43,0.125
1.2527777777777374,-0.45,0.1
1.2555555555554747,-0.455,0.105
1.2583333333334394,-0.46,0.12
1.2611111111111768,-0.45,0.135
1.2638888888889142,-0.415,0.145
1.2666666666666515,-0.415,0.135
1.2694444444443889,-0.42,0.125
1.2722222222221262,-0.43,0.105
1.275000000000091,-0.445,0.11
1.2777777777778283,-0.43,0.12
1.2805555555555657,-0.405,0.13
1.283333333333303,-0.395,0.115
1.2861111111110404,-0.4,0.11
1.2888888888887777,-0.41,0.135
1.2916666666667425,-0.41,0.18
1.2944444444444798,-0.395,0.235
1.2972222222222172,-0.39,0.25
1.2999999999999545,-0.39,0.195
1.3027777777776919,-0.4,0.11
1.3055555555554292,-0.42,-0.035
1.308333333333394,-0.44,-0.205
1.3111111111111313,-0.435,-0.415
1.3138888888888687,-0.33,-0.59
1.316666666666606,-0.16,-0.725
1.3194444444445708,0.08,-0.775
1.3222222222223081,0.345,-0.745
1.3250000000000455,0.615,-0.655
1.3277777777777828,0.8,-0.53
1.3305555555555202,0.86,-0.41
1.3333333333332575,0.755,-0.28
1.3361111111112223,0.455,-0.145
1.3388888888889596,0.11,-0.02
1.341666666666697,-0.12,0.1
1.3444444444444343,-0.23,0.17
1.3472222222221717,-0.23,0.2
1.349999999999909,-0.21,0.215
1.3527777777778738,-0.205,0.215
1.3555555555556111,-0.22,0.205
1.3583333333333485,-0.245,0.215
1.3611111111110858,-0.265,0.22
1.3638888888888232,-0.28,0.225
1.3666666666665606,-0.32,0.21
1.3694444444445253,-0.345,0.19
1.3722222222222626,-0.37,0.18
1.375,-0.375,0.205
1.3777777777777374,-0.365,0.215
1.3805555555554747,-0.35,0.215
1.3833333333334394,-0.35,0.205
1.3861111111111768,-0.365,0.195
1.3888888888889142,-0.365,0.18
1.3916666666666515,-0.36,0.2
1.3944444444443889,-0.35,0.195
1.3972222222221262,-0.325,0.21
1.400000000000091,-0.33,0.21
1.4027777777778283,-0.34,0.195
1.4055555555555657,-0.35,0.195
1.408333333333303,-0.335,0.2
1.4111111111110404,-0.325,0.205
1.4138888888887777,-0.32,0.225
1.4166666666667425,-0.31,0.215
1.4194444444444798,-0.315,0.205
1.4222222222222172,-0.305,0.2
1.4249999999999545,-0.305,0.215
1.4277777777776919,-0.29,0.22
1.4305555555554292,-0.275,0.225
1.433333333333394,-0.265,0.23
1.4361111111111313,-0.265,0.205
1.4388888888888687,-0.28,0.19
1.441666666666606,-0.27,0.215
1.4444444444445708,-0.27,0.23
1.4472222222223081,-0.26,0.235
1.4500000000000455,-0.245,0.23
1.4527777777777828,-0.265,0.24
1.4555555555555202,-0.27,0.225
1.4583333333332575,-0.255,0.23
1.4611111111112223,-0.255,0.24
1.4638888888889596,-0.23,0.255
1.466666666666697,-0.24,0.26
1.4694444444444343,-0.24,0.24
1.4722222222221717,-0.26,0.235
1.474999999999909,-0.265,0.245
1.4777777777778738,-0.25,0.25
1.4805555555556111,-0.22,0.265
1.4833333333333485,-0.225,0.255
1.4861111111110858,-0.235,0.26
1.4888888888888232,-0.235,0.235
1.4916666666665606,-0.235,0.26
1.4944444444445253,-0.225,0.27
1.4972222222222626,-0.215,0.285
1.5,-0.21,0.265
1.5027777777777374,-0.205,0.245
1.5055555555554747,-0.23,0.245
1.5083333333334394,-0.225,0.255
1.5111111111111768,-0.23,0.265
1.5138888888889142,-0.22,0.285
1.5166666666666515,-0.205,0.275
1.5194444444443889,-0.2,0.255
1.5222222222221262,-0.21,0.26
1.525000000000091,-0.21,0.275
1.5277777777778283,-0.21,0.285
1.5305555555555657,-0.195,0.275
1.533333333333303,-0.19,0.29
1.5361111111110404,-0.195,0.275
1.5388888888887777,-0.2,0.26
1.5416666666667425,-0.21,0.27
1.5444444444444798,-0.205,0.29
1.5472222222222172,-0.185,0.285
1.5499999999999545,-0.195,0.285
1.5527777777776919,-0.19,0.255
1.5555555555554292,-0.21,0.25
1.558333333333394,-0.22,0.26
1.5611111111111313,-0.215,0.27
1.5638888888888687,-0.195,0.27
1.566666666666606,-0.195,0.26
1.5694444444445708,-0.215,0.25
1.5722222222223081,-0.21,0.24
1.5750000000000455,-0.2,0.25
1.5777777777777828,-0.2,0.255
1.5805555555555202,-0.195,0.26
1.5833333333332575,-0.19,0.255
1.5861111111112223,-0.21,0.24
1.5888888888889596,-0.235,0.23
1.591666666666697,-0.245,0.23
1.5944444444444343,-0.24,0.25
1.5972222222221717,-0.24,0.255
1.599999999999909,-0.24,0.26
1.6027777777778738,-0.24,0.245
1.6055555555556111,-0.265,0.24
1.6083333333333485,-0.27,0.245
1.6111111111110858,-0.265,0.245
1.6138888888888232,-0.26,0.245
1.6166666666665606,-0.27,0.24
1.6194444444445253,-0.275,0.23
1.6222222222222626,-0.29,0.22
1.625,-0.295,0.22
1.6277777777777374,-0.3,0.235
1.6305555555554747,-0.275,0.245
1.6333333333334394,-0.28,0.23
1.6361111111111768,-0.265,0.21
1.6388888888889142,-0.3,0.2
1.6416666666666515,-0.3,0.205
1.6444444444443889,-0.275,0.205
1.6472222222221262,-0.27,0.225
1.650000000000091,-0.275,0.2
1.6527777777778283,-0.28,0.19
1.6555555555555657,-0.275,0.17
1.658333333333303,-0.27,0.175
1.6611111111110404,-0.265,0.19
1.6638888888887777,-0.235,0.19
1.6666666666667425,-0.23,0.18
1.6694444444444798,-0.245,0.18
1.6722222222222172,-0.24,0.18
1.6749999999999545,-0.22,0.185
1.6777777777776919,-0.19,0.215
1.6805555555554292,-0.155,0.225
1.683333333333394,-0.145,0.21
1.6861111111111313,-0.13,0.19
1.6888888888888687,-0.125,0.18
1.691666666666606,-0.085,0.165
1.6944444444445708,-0.08,0.175
1.6972222222223081,-0.07,0.18
1.7000000000000455,-0.105,0.175
1.7027777777777828,-0.14,0.17
1.7055555555555202,-0.185,0.185
1.7083333333332575,-0.165,0.205
1.7111111111112223,-0.135,0.225
1.7138888888889596,-0.12,0.25
1.716666666666697,-0.13,0.255
1.7194444444444343,-0.115,0.255
1.7222222222221717,-0.13,0.25
1.724999999999909,-0.12,0.235
1.7277777777778738,-0.095,0.215
1.7305555555556111,-0.08,0.205
1.7333333333333485,-0.095,0.18
1.7361111111110858,-0.13,0.16
1.7388888888888232,-0.16,0.145
1.7416666666665606,-0.155,0.145
1.7444444444445253,-0.14,0.145
1.7472222222222626,-0.125,0.16
1.75,-0.135,0.145
1.7527777777777374,-0.145,0.135
1.7555555555554747,-0.17,0.12
1.7583333333334394,-0.155,0.145
1.7611111111111768,-0.16,0.155
1.7638888888889142,-0.125,0.155
1.7666666666666515,-0.135,0.135
1.7694444444443889,-0.13,0.125
1.7722222222221262,-0.145,0.115
1.775000000000091,-0.135,0.135
1.7777777777778283,-0.125,0.155
1.7805555555555657,-0.1,0.16
1.783333333333303,-0.11,0.155
1.7861111111110404,-0.13,0.135
1.7888888888887777,-0.14,0.135
1.7916666666667425,-0.13,0.155
1.7944444444444798,-0.115,0.17
1.7972222222222172,-0.095,0.17
1.7999999999999545,-0.095,0.185
1.8027777777776919,-0.095,0.205
1.8055555555554292,-0.09,0.245
1.808333333333394,-0.09,0.3
1.8111111111111313,-0.065,0.32
1.8138888888888687,-0.065,0.295
1.816666666666606,-0.065,0.205
1.8194444444445708,-0.105,0.06
1.8222222222223081,-0.165,-0.12
1.8250000000000455,-0.18,-0.34
1.8277777777777828,-0.135,-0.54
1.8305555555555202,-0.02,-0.695
1.8333333333332575,0.145,-0.82
1.8361111111112223,0.35,-0.885
1.8388888888889596,0.58,-0.86
1.841666666666697,0.805,-0.75
1.8444444444444343,0.94,-0.57
1.8472222222221717,0.93,-0.385
1.849999999999909,0.675,-0.2
1.8527777777778738,0.33,-0.065
1.8555555555556111,0.02,0.08
1.8583333333333485,-0.125,0.195
1.8611111111110858,-0.135,0.25
1.8638888888888232,-0.095,0.27
1.8666666666665606,-0.05,0.265
1.8694444444445253,-0.025,0.245
1.8722222222222626,-0.04,0.25
1.875,-0.035,0.245
1.8777777777777374,-0.035,0.26
1.8805555555554747,-0.045,0.27
1.8833333333334394,-0.04,0.26
1.8861111111111768,-0.045,0.235
1.8888888888889142,-0.055,0.235
1.8916666666666515,-0.04,0.25
1.8944444444443889,-0.035,0.26
1.8972222222221262,-0.015,0.265
1.900000000000091,-0.01,0.26
1.9027777777778283,-0.01,0.235
1.9055555555555657,-0.02,0.22
1.908333333333303,-0.005,0.245
1.9111111111110404,0,0.245
1.9138888888887777,0.01,0.26
1.9166666666667425,0.01,0.25
1.9194444444444798,0,0.23
1.9222222222222172,-0.015,0.225
1.9249999999999545,-0.02,0.235
1.9277777777776919,0,0.25
1.9305555555554292,0.015,0.265
1.933333333333394,0.015,0.26
1.9361111111111313,-0.005,0.245
1.9388888888888687,-0.005,0.24
1.941666666666606,-0.01,0.255
1.9444444444445708,-0.005,0.26
1.9472222222223081,0.015,0.265
1.9500000000000455,0.015,0.255
1.9527777777777828,-0.01,0.25
1.9555555555555202,-0.02,0.24
1.9583333333332575,-0.015,0.25
1.9611111111112223,0,0.25
1.9638888888889596,0.005,0.265
1.966666666666697,-0.01,0.255
1.9694444444444343,0.005,0.245
1.9722222222221717,-0.01,0.24
1.974999999999909,0,0.255
1.9777777777778738,0.005,0.27
1.9805555555556111,0.03,0.275
1.9833333333333485,0.02,0.265
1.9861111111110858,0.01,0.26
1.9888888888888232,0,0.245
1.9916666666665606,0.02,0.255
1.9944444444445253,0.01,0.28
1.9972222222222626,0.04,0.285
2,0.03,0.27
2.0027777777777374,0.025,0.245
2.0055555555554747,0.01,0.24
2.0083333333334394,0.005,0.255
2.011111111111177,0.025,0.265
2.013888888888914,0.04,0.28
2.0166666666666515,0.02,0.265
2.019444444444389,0.01,0.255
2.022222222222126,0.005,0.25
2.025000000000091,0,0.255
2.0277777777778283,0.01,0.275
2.0305555555555657,0.005,0.28
2.033333333333303,0.015,0.26
2.0361111111110404,0.005,0.25
2.0388888888887777,-0.005,0.24
2.0416666666667425,-0.03,0.25
2.044444444,-0.02,0.26
2.047222222222217,-0.03,0.255
2.0499999999999545,-0.025,0.24
2.052777777777692,-0.045,0.23
2.0555555555554292,-0.065,0.22
2.058333333333394,-0.07,0.24
2.0611111111111313,-0.065,0.24
2.0638888888888687,-0.065,0.25
2.066666666666606,-0.09,0.23
2.0694444444445708,-0.08,0.22
2.072222222222308,-0.11,0.205
2.0750000000000455,-0.115,0.225
2.077777777777783,-0.105,0.225
2.080555556,-0.08,0.24
2.0833333333332575,-0.09,0.235
2.0861111111112223,-0.095,0.21
2.0888888888889596,-0.1,0.21
2.091666666666697,-0.105,0.215
2.0944444444444343,-0.095,0.225
2.0972222222221717,-0.09,0.22
2.099999999999909,-0.09,0.225
2.102777777777874,-0.065,0.215
2.105555555555611,-0.075,0.195
2.1083333333333485,-0.085,0.205
2.111111111111086,-0.075,0.205
2.113888888888823,-0.055,0.205
2.1166666666665606,-0.065,0.2
2.1194444444445253,-0.065,0.195
2.1222222222222626,-0.085,0.19
2.125,-0.095,0.205
2.1277777777777374,-0.07,0.21
2.1305555555554747,-0.05,0.215
2.1333333333334394,-0.065,0.2
2.136111111111177,-0.065,0.195
2.138888888888914,-0.075,0.19
2.1416666666666515,-0.065,0.2
2.144444444444389,-0.065,0.205
2.147222222222126,-0.045,0.195
2.150000000000091,-0.05,0.2
2.1527777777778283,-0.07,0.19
2.1555555555555657,-0.07,0.18
2.158333333333303,-0.075,0.19
2.1611111111110404,-0.08,0.205
2.1638888888887777,-0.065,0.205
2.1666666666667425,-0.04,0.2
2.169444444,-0.045,0.18
2.172222222222217,-0.065,0.185
2.1749999999999545,-0.07,0.19
2.177777777777692,-0.06,0.19
2.1805555555554292,-0.05,0.205
2.183333333333394,-0.045,0.19
2.1861111111111313,-0.05,0.175
2.1888888888888687,-0.06,0.175
2.191666666666606,-0.065,0.185
2.1944444444445708,-0.05,0.205
2.197222222222308,-0.025,0.195
2.2000000000000455,-0.035,0.195
2.202777777777783,-0.045,0.175
2.205555556,-0.055,0.165
2.2083333333332575,-0.045,0.175
2.2111111111112223,-0.04,0.185
2.2138888888889596,-0.035,0.205
2.216666666666697,-0.03,0.185
2.2194444444444343,-0.035,0.185
2.2222222222221717,-0.055,0.16
2.224999999999909,-0.045,0.17
2.227777777777874,-0.04,0.195
2.230555555555611,-0.025,0.19
2.2333333333333485,-0.04,0.18
2.236111111111086,-0.04,0.175
2.238888888888823,-0.045,0.16
2.2416666666665606,-0.05,0.155
2.2444444444445253,-0.045,0.19
2.2472222222222626,-0.02,0.19
2.25,-0.015,0.19
2.2527777777777374,-0.04,0.18
2.2555555555554747,-0.05,0.175
2.2583333333334394,-0.05,0.17
2.261111111111177,-0.03,0.18
2.263888888888914,-0.01,0.195
2.2666666666666515,-0.02,0.185
2.269444444444389,-0.01,0.165
2.272222222222126,-0.035,0.15
2.275000000000091,-0.025,0.175
2.2777777777778283,-0.025,0.19
2.2805555555555657,-0.005,0.195
2.283333333333303,0,0.19
2.2861111111110404,-0.01,0.17
2.2888888888887777,-0.015,0.165
2.2916666666667425,-0.01,0.175
2.294444444,-0.015,0.195
2.297222222222217,0.005,0.19
2.2999999999999545,0.005,0.185
2.302777777777692,-0.005,0.165
2.3055555555554292,-0.01,0.165
2.308333333333394,-0.01,0.165
2.3111111111111313,-0.005,0.18
2.3138888888888687,0,0.195
2.316666666666606,0.015,0.175
2.3194444444445708,0.01,0.18
2.322222222222308,-0.005,0.16
2.3250000000000455,0,0.17
2.327777777777783,0,0.18
2.330555556,0.02,0.195
2.3333333333332575,0.005,0.185
2.3361111111112223,0.015,0.175
2.3388888888889596,0,0.17
2.341666666666697,0,0.175
2.3444444444444343,0.005,0.18
2.3472222222221717,0.025,0.19
2.349999999999909,0.025,0.18
2.352777777777874,0.02,0.16
2.355555555555611,-0.01,0.155
2.3583333333333485,0.01,0.17
2.361111111111086,0.015,0.18
2.363888888888823,0.03,0.195
2.3666666666665606,0.025,0.175
2.3694444444445253,-0.005,0.165
2.3722222222222626,-0.01,0.155
2.375,-0.015,0.17
2.3777777777777374,-0.015,0.18
2.3805555555554747,-0.005,0.185
2.3833333333334394,-0.005,0.185
2.386111111111177,-0.015,0.165
2.388888888888914,-0.03,0.17
2.3916666666666515,-0.025,0.17
2.394444444444389,-0.005,0.185
2.397222222222126,-0.005,0.185
2.400000000000091,0.005,0.18
2.4027777777778283,0,0.175
2.4055555555555657,-0.025,0.165
2.408333333333303,-0.03,0.19
2.4111111111110404,-0.015,0.185
2.4138888888887777,0,0.19
2.4166666666667425,0.015,0.175
2.419444444,-0.005,0.17
2.422222222222217,-0.015,0.15
2.4249999999999545,-0.015,0.175
2.427777777777692,-0.015,0.18
2.4305555555554292,-0.005,0.18
2.433333333333394,-0.015,0.18
2.4361111111111313,-0.015,0.165
2.4388888888888687,-0.025,0.155
2.441666666666606,-0.025,0.165
2.4444444444445708,-0.015,0.175
2.447222222222308,-0.01,0.185
2.4500000000000455,-0.005,0.175
2.452777777777783,-0.01,0.17
2.455555556,-0.03,0.155
2.4583333333332575,-0.025,0.18
2.4611111111112223,-0.02,0.175
2.4638888888889596,-0.015,0.18
2.466666666666697,-0.005,0.165
2.4694444444444343,0,0.15
2.4722222222221717,-0.015,0.15
2.474999999999909,-0.02,0.155
2.477777777777874,-0.01,0.17
2.480555555555611,-0.005,0.185
2.4833333333333485,-0.01,0.165
2.486111111111086,-0.015,0.155
2.488888888888823,-0.03,0.145
2.4916666666665606,-0.045,0.155
2.4944444444445253,-0.005,0.175
2.4972222222222626,-0.01,0.18
2.5,0.005,0.165
2.5027777777777374,-0.005,0.165
2.5055555555554747,-0.015,0.155
2.5083333333334394,-0.02,0.16
2.511111111111177,-0.01,0.175
2.513888888888914,0.01,0.175
2.5166666666666515,0,0.165
2.519444444444389,-0.015,0.145
2.522222222222126,-0.02,0.15
2.525000000000091,-0.01,0.165
2.5277777777778283,-0.01,0.17
2.5305555555555657,0,0.175
2.533333333333303,-0.005,0.175
2.5361111111110404,0,0.15
2.5388888888887777,-0.015,0.145
2.5416666666667425,-0.005,0.155
2.544444444,0.005,0.165
2.547222222222217,0.005,0.175
2.5499999999999545,0,0.155
2.552777777777692,-0.005,0.15
2.5555555555554292,-0.015,0.145
2.558333333333394,-0.015,0.155
2.5611111111111313,-0.015,0.165
2.5638888888888687,0,0.165
2.566666666666606,0.01,0.155
2.5694444444445708,-0.005,0.14
2.572222222222308,-0.015,0.145
2.5750000000000455,-0.02,0.155
2.577777777777783,-0.025,0.165
2.580555556,-0.005,0.175
2.5833333333332575,-0.005,0.15
2.5861111111112223,-0.005,0.15
2.5888888888889596,-0.01,0.135
2.591666666666697,-0.015,0.15
2.5944444444444343,-0.01,0.16
2.5972222222221717,0.005,0.17
2.599999999999909,0.005,0.17
2.602777777777874,0,0.165
2.605555555555611,-0.01,0.16
2.6083333333333485,-0.02,0.16
2.611111111111086,0,0.17
2.613888888888823,0.015,0.155
2.6166666666665606,0.01,0.16
2.6194444444445253,-0.01,0.15
2.6222222222222626,-0.01,0.145
2.625,-0.01,0.15
2.6277777777777374,-0.005,0.16
2.6305555555554747,0.01,0.165
2.6333333333334394,0.01,0.15
2.636111111111177,-0.005,0.15
2.638888888888914,-0.025,0.14
2.6416666666666515,-0.035,0.145
2.644444444444389,-0.005,0.165
2.647222222222126,0.005,0.17
2.650000000000091,-0.005,0.15
2.6527777777778283,-0.005,0.14
2.6555555555555657,-0.015,0.135
2.658333333333303,-0.025,0.15
2.6611111111110404,-0.005,0.155
2.6638888888887777,0,0.16
2.6666666666667425,-0.015,0.16
2.669444444,0.005,0.155
2.672222222222217,-0.03,0.145
2.6749999999999545,-0.015,0.16
2.677777777777692,-0.01,0.17
2.6805555555554292,0.02,0.185
2.683333333333394,0.02,0.155
2.6861111111111313,0.005,0.155
2.6888888888888687,0,0.155
2.691666666666606,-0.01,0.18
2.6944444444445708,0.015,0.18
2.697222222222308,0.025,0.185
2.7000000000000455,0.025,0.195
2.702777777777783,0.015,0.175
2.705555556,0,0.19
2.7083333333332575,0.005,0.235
2.7111111111112223,0,0.3
2.7138888888889596,0.025,0.335
2.716666666666697,0.015,0.315
2.7194444444444343,-0.015,0.255
2.7222222222221717,-0.055,0.14
2.724999999999909,-0.07,-0.025
2.727777777777874,-0.055,-0.23
2.730555555555611,0.005,-0.42
2.7333333333333485,0.135,-0.62
2.736111111111086,0.34,-0.78
2.738888888888823,0.57,-0.85
2.7416666666665606,0.81,-0.825
2.7444444444445253,1.025,-0.74
2.7472222222222626,1.185,-0.63
2.75,1.255,-0.53
2.7527777777777374,1.175,-0.4
2.7555555555554747,0.95,-0.27
2.7583333333334394,0.635,-0.09
2.761111111111177,0.36,0.065
2.763888888888914,0.2,0.155
2.7666666666666515,0.165,0.195
2.769444444444389,0.155,0.195
2.772222222222126,0.155,0.195
2.775000000000091,0.12,0.225
2.7777777777778283,0.11,0.245
2.7805555555555657,0.1,0.27
2.783333333333303,0.075,0.25
2.7861111111110404,0.045,0.25
2.7888888888887777,0.01,0.235
2.7916666666667425,-0.01,0.245
2.794444444,-0.015,0.255
2.797222222222217,-0.03,0.245
2.7999999999999545,-0.03,0.24
2.802777777777692,-0.025,0.225
2.8055555555554292,-0.05,0.225
2.808333333333394,-0.045,0.23
2.8111111111111313,-0.02,0.23
2.8138888888888687,-0.02,0.25
2.816666666666606,0,0.24
2.8194444444445708,-0.03,0.235
2.822222222222308,-0.035,0.225
2.8250000000000455,-0.03,0.235
2.827777777777783,-0.015,0.25
2.830555556,0,0.26
2.8333333333332575,0.005,0.25
2.8361111111112223,0,0.235
2.8388888888889596,-0.01,0.22
2.841666666666697,-0.01,0.255
2.8444444444444343,0.015,0.255
2.8472222222221717,0.02,0.265
2.849999999999909,0.03,0.255
2.852777777777874,0.01,0.25
2.855555555555611,0,0.245
2.8583333333333485,-0.005,0.265
2.861111111111086,-0.01,0.275
2.863888888888823,0.015,0.285
2.8666666666665606,0.02,0.27
2.8694444444445253,0.02,0.26
2.8722222222222626,0,0.245
2.875,0.005,0.26
2.8777777777777374,0.02,0.285
2.8805555555554747,0.035,0.285
2.8833333333334394,0.04,0.295
2.886111111111177,0.02,0.265
2.888888888888914,0,0.27
2.8916666666666515,0.005,0.275
2.894444444444389,0.01,0.28
2.897222222222126,0.035,0.295
2.900000000000091,0.03,0.29
2.9027777777778283,0.03,0.295
2.9055555555555657,0,0.275
2.908333333333303,0.01,0.29
2.9111111111110404,0.015,0.31
2.9138888888887777,0.035,0.305
2.9166666666667425,0.03,0.29
2.919444444,0.015,0.295
2.922222222222217,0.01,0.275
2.9249999999999545,0.025,0.3
2.927777777777692,0.035,0.315
2.9305555555554292,0.02,0.32
2.933333333333394,0.03,0.305
2.9361111111111313,0.025,0.3
2.9388888888888687,0.03,0.295
2.941666666666606,0.03,0.305
2.9444444444445708,0.04,0.32
2.947222222222308,0.045,0.325
2.9500000000000455,0.055,0.31
2.952777777777783,0.035,0.305
2.955555556,0.035,0.3
2.9583333333332575,0.04,0.315
2.9611111111112223,0.04,0.305
2.9638888888889596,0.06,0.315
2.966666666666697,0.06,0.295
2.9694444444444343,0.05,0.3
2.9722222222221717,0.035,0.28
2.974999999999909,0.035,0.29
2.977777777777874,0.05,0.305
2.980555555555611,0.05,0.31
2.9833333333333485,0.05,0.28
2.986111111111086,0.03,0.275
2.988888888888823,0.015,0.26
2.9916666666665606,0.005,0.275
2.9944444444445253,0.015,0.285
2.9972222222222626,0.005,0.295
3,-0.01,0.28
3.0027777777777374,-0.02,0.265
3.0055555555554747,-0.03,0.25
3.0083333333334394,-0.04,0.265
3.011111111111177,-0.035,0.275
3.013888888888914,-0.03,0.28
3.0166666666666515,-0.05,0.255
3.019444444444389,-0.075,0.245
3.022222222222126,-0.09,0.24
3.025000000000091,-0.095,0.26
3.0277777777778283,-0.095,0.27
3.0305555555555657,-0.095,0.26
3.033333333333303,-0.11,0.245
3.0361111111110404,-0.135,0.235
3.0388888888887777,-0.145,0.225
3.0416666666667425,-0.16,0.235
3.044444444,-0.17,0.255
3.047222222222217,-0.16,0.255
3.0499999999999545,-0.165,0.24
3.052777777777692,-0.19,0.225
3.0555555555554292,-0.22,0.225
3.058333333333394,-0.21,0.225
3.0611111111111313,-0.2,0.235
3.0638888888888687,-0.185,0.245
3.066666666666606,-0.19,0.23
3.0694444444445708,-0.205,0.21
3.072222222222308,-0.23,0.2
3.0750000000000455,-0.22,0.215
3.077777777777783,-0.22,0.225
3.080555556,-0.205,0.225
3.0833333333332575,-0.205,0.22
3.0861111111112223,-0.205,0.195
3.0888888888889596,-0.225,0.18
3.091666666666697,-0.22,0.185
3.0944444444444343,-0.21,0.2
3.0972222222221717,-0.185,0.195
3.099999999999909,-0.2,0.185
3.102777777777874,-0.205,0.18
3.105555555555611,-0.205,0.17
3.1083333333333485,-0.2,0.175
3.111111111111086,-0.17,0.195
3.113888888888823,-0.155,0.21
3.1166666666665606,-0.14,0.2
3.1194444444445253,-0.14,0.2
3.1222222222222626,-0.15,0.19
3.125,-0.14,0.195
3.1277777777777374,-0.11,0.2
3.1305555555554747,-0.09,0.2
3.1333333333334394,-0.055,0.185
3.136111111111177,-0.05,0.155
3.138888888888914,-0.075,0.15
3.1416666666666515,-0.1,0.155
3.144444444444389,-0.125,0.175
3.147222222222126,-0.125,0.2
3.150000000000091,-0.145,0.205
3.1527777777778283,-0.15,0.205
3.1555555555555657,-0.165,0.2
3.158333333333303,-0.15,0.22
3.1611111111110404,-0.13,0.255
3.1638888888887777,-0.1,0.27
3.1666666666667425,-0.09,0.27
3.169444444,-0.11,0.245
3.172222222222217,-0.115,0.205
3.1749999999999545,-0.11,0.21
3.177777777777692,-0.085,0.205
3.1805555555554292,-0.075,0.185
3.183333333333394,-0.11,0.16
3.1861111111111313,-0.13,0.145
3.1888888888888687,-0.155,0.14
3.191666666666606,-0.16,0.15
3.1944444444445708,-0.145,0.155
3.197222222222308,-0.155,0.155
3.2000000000000455,-0.155,0.145
3.202777777777783,-0.165,0.135
3.205555556,-0.16,0.125
3.2083333333332575,-0.165,0.13
3.2111111111112223,-0.16,0.155
3.2138888888889596,-0.135,0.15
3.216666666666697,-0.135,0.145
3.2194444444444343,-0.135,0.135
3.2222222222221717,-0.165,0.13
3.224999999999909,-0.145,0.14
3.227777777777874,-0.135,0.14
3.230555555555611,-0.14,0.15
3.2333333333333485,-0.115,0.145
3.236111111111086,-0.135,0.13
3.238888888888823,-0.14,0.14
3.2416666666665606,-0.14,0.15
3.2444444444445253,-0.135,0.155
3.2472222222222626,-0.105,0.185
3.25,-0.11,0.16
3.2527777777777374,-0.115,0.16
3.2555555555554747,-0.125,0.18
3.2583333333334394,-0.11,0.215
3.261111111111177,-0.1,0.265
3.263888888888914,-0.085,0.315
3.2666666666666515,-0.09,0.295
3.269444444444389,-0.095,0.255
3.272222222222126,-0.12,0.165
3.275000000000091,-0.15,0.09
3.2777777777778283,-0.185,-0.04
3.2805555555555657,-0.215,-0.23
3.283333333333303,-0.23,-0.42
3.2861111111110404,-0.19,-0.595
3.2888888888887777,-0.105,-0.74
3.2916666666667425,0.065,-0.82
3.294444444,0.275,-0.83
3.297222222222217,0.52,-0.76
3.2999999999999545,0.7,-0.64
3.302777777777692,0.79,-0.495
3.3055555555554292,0.715,-0.345
3.308333333333394,0.49,-0.185
3.3111111111111313,0.22,-0.03
3.3138888888888687,0.01,0.105
3.316666666666606,-0.095,0.195
3.3194444444445708,-0.125,0.24
3.322222222222308,-0.13,0.25
3.3250000000000455,-0.085,0.27
3.327777777777783,-0.035,0.265
3.330555556,-0.01,0.265
3.3333333333332575,-0.005,0.245
3.3361111111112223,-0.025,0.225
3.3388888888889596,-0.05,0.23
3.341666666666697,-0.05,0.235
3.3444444444444343,-0.05,0.26
3.3472222222221717,-0.045,0.24
3.349999999999909,-0.04,0.225
3.352777777777874,-0.065,0.215
3.355555555555611,-0.065,0.21
3.3583333333333485,-0.06,0.23
3.361111111111086,-0.05,0.225
3.363888888888823,-0.025,0.23
3.3666666666665606,-0.02,0.22
3.3694444444445253,-0.035,0.21
3.3722222222222626,-0.04,0.21
3.375,-0.035,0.21
3.3777777777777374,-0.03,0.21
3.3805555555554747,0,0.215
3.3833333333334394,-0.01,0.21
3.386111111111177,-0.01,0.19
3.388888888888914,-0.03,0.185
3.3916666666666515,-0.01,0.215
3.394444444444389,-0.005,0.235
3.397222222222126,0.02,0.24
3.400000000000091,0.02,0.23
3.4027777777778283,0.03,0.225
3.4055555555555657,0.035,0.21
3.408333333333303,0.045,0.215
3.4111111111110404,0.06,0.235
3.4138888888887777,0.085,0.235
3.4166666666667425,0.085,0.22
3.419444444,0.095,0.22
3.422222222222217,0.095,0.205
3.4249999999999545,0.09,0.205
3.427777777777692,0.105,0.215
3.4305555555554292,0.11,0.215
3.433333333333394,0.1,0.2
3.4361111111111313,0.07,0.225
3.4388888888888687,0.045,0.23
3.441666666666606,0.035,0.24
3.4444444444445708,0.04,0.265
3.447222222222308,0.045,0.29
3.4500000000000455,0.025,0.285
3.452777777777783,-0.015,0.28
3.455555556,-0.03,0.28
3.4583333333332575,-0.03,0.305
3.4611111111112223,-0.005,0.3
3.4638888888889596,-0.005,0.3
3.466666666666697,-0.01,0.275
3.4694444444444343,-0.015,0.25
3.4722222222221717,-0.015,0.24
3.474999999999909,-0.03,0.235
3.477777777777874,-0.015,0.225
3.480555555555611,-0.015,0.215
3.4833333333333485,-0.015,0.21
3.486111111111086,-0.02,0.19
3.488888888888823,-0.045,0.18
3.4916666666665606,-0.055,0.19
3.4944444444445253,-0.035,0.2
3.4972222222222626,-0.03,0.19
3.5,-0.05,0.195
3.5027777777777374,-0.07,0.175
3.5055555555554747,-0.085,0.175
3.5083333333334394,-0.09,0.185
3.511111111111177,-0.08,0.2
3.513888888888914,-0.07,0.21
3.5166666666666515,-0.08,0.195
3.519444444444389,-0.085,0.195
3.522222222222126,-0.105,0.18
3.525000000000091,-0.095,0.19
3.5277777777778283,-0.11,0.205
3.5305555555555657,-0.075,0.195
3.533333333333303,-0.095,0.19
3.5361111111110404,-0.11,0.17
3.5388888888887777,-0.13,0.175
3.5416666666667425,-0.14,0.18
3.544444444,-0.14,0.19
3.547222222222217,-0.115,0.195
3.5499999999999545,-0.14,0.18
3.552777777777692,-0.155,0.165
3.5555555555554292,-0.18,0.155
3.558333333333394,-0.18,0.165
3.5611111111111313,-0.18,0.17
3.5638888888888687,-0.17,0.19
3.566666666666606,-0.18,0.16
3.5694444444445708,-0.2,0.135
3.572222222222308,-0.205,0.145
3.5750000000000455,-0.215,0.16
3.577777777777783,-0.215,0.155
3.580555556,-0.215,0.175
3.5833333333332575,-0.19,0.17
3.5861111111112223,-0.2,0.15
3.5888888888889596,-0.195,0.155
3.591666666666697,-0.2,0.16
3.5944444444444343,-0.195,0.175
3.5972222222221717,-0.165,0.175
3.599999999999909,-0.175,0.16
3.602777777777874,-0.18,0.165
3.605555555555611,-0.18,0.165
3.6083333333333485,-0.185,0.18
3.611111111111086,-0.16,0.18
3.613888888888823,-0.13,0.195
3.6166666666665606,-0.155,0.165
3.6194444444445253,-0.165,0.16
3.6222222222222626,-0.175,0.15
3.625,-0.15,0.16
3.6277777777777374,-0.135,0.18
3.6305555555554747,-0.11,0.175
3.6333333333334394,-0.11,0.165
3.636111111111177,-0.105,0.16
3.638888888888914,-0.11,0.145
3.6416666666666515,-0.08,0.15
3.644444444444389,-0.035,0.165
3.647222222222126,-0.005,0.185
3.650000000000091,0.035,0.175
3.6527777777778283,0.045,0.2
3.6555555555555657,0.05,0.22
3.658333333333303,0.095,0.265
3.6611111111110404,0.125,0.315
3.6638888888887777,0.135,0.35
3.6666666666667425,0.115,0.335
3.669444444,0.1,0.285
3.672222222222217,0.05,0.22
3.6749999999999545,0.025,0.1
3.677777777777692,0.05,-0.065
3.6805555555554292,0.135,-0.265
3.683333333333394,0.295,-0.45
3.6861111111111313,0.475,-0.61
3.6888888888888687,0.645,-0.665
3.691666666666606,0.82,-0.665
3.6944444444445708,1.02,-0.58
3.697222222222308,1.23,-0.48
3.7000000000000455,1.4,-0.375
3.702777777777783,1.425,-0.27
3.705555556,1.275,-0.125
3.7083333333332575,0.965,0.05
3.7111111111112223,0.65,0.165
3.7138888888889596,0.415,0.225
3.716666666666697,0.335,0.21
3.7194444444444343,0.29,0.185
3.7222222222221717,0.23,0.18
3.724999999999909,0.145,0.175
3.727777777777874,0.045,0.175
3.730555555555611,-0.035,0.18
3.7333333333333485,-0.07,0.165
3.736111111111086,-0.105,0.15
3.738888888888823,-0.12,0.135
3.7416666666665606,-0.12,0.14
3.7444444444445253,-0.125,0.145
3.7472222222222626,-0.12,0.145
3.75,-0.14,0.135
3.7527777777777374,-0.17,0.125
3.7555555555554747,-0.18,0.11
3.7583333333334394,-0.19,0.115
3.761111111111177,-0.165,0.125
3.763888888888914,-0.17,0.145
3.7666666666666515,-0.18,0.125
3.769444444444389,-0.19,0.125
3.772222222222126,-0.19,0.125
3.775000000000091,-0.175,0.13
3.7777777777778283,-0.17,0.145
3.7805555555555657,-0.145,0.15
3.783333333333303,-0.155,0.155
3.7861111111110404,-0.165,0.14
3.7888888888887777,-0.165,0.13
3.7916666666667425,-0.16,0.14
3.794444444,-0.155,0.16
3.797222222222217,-0.13,0.16
3.7999999999999545,-0.14,0.155
3.802777777777692,-0.135,0.145
3.8055555555554292,-0.14,0.135
3.808333333333394,-0.15,0.145
3.8111111111111313,-0.16,0.15
3.8138888888888687,-0.13,0.165
3.816666666666606,-0.125,0.15
3.8194444444445708,-0.14,0.14
3.822222222222308,-0.15,0.135
3.8250000000000455,-0.155,0.165
3.827777777777783,-0.155,0.17
3.830555556,-0.12,0.17
3.8333333333332575,-0.135,0.155
3.8361111111112223,-0.145,0.145
3.8388888888889596,-0.145,0.15
3.841666666666697,-0.145,0.165
3.8444444444444343,-0.13,0.17
3.8472222222221717,-0.125,0.18
3.849999999999909,-0.135,0.18
3.852777777777874,-0.145,0.175
3.855555555555611,-0.145,0.165
3.8583333333333485,-0.15,0.18
3.861111111111086,-0.15,0.185
3.863888888888823,-0.13,0.195
3.8666666666665606,-0.135,0.18
3.8694444444445253,-0.165,0.175
3.8722222222222626,-0.17,0.185
3.875,-0.175,0.19
3.8777777777777374,-0.17,0.205
3.8805555555554747,-0.165,0.21
3.8833333333334394,-0.15,0.2
3.886111111111177,-0.185,0.195
3.888888888888914,-0.175,0.195
3.8916666666666515,-0.18,0.205
3.894444444444389,-0.16,0.22
3.897222222222126,-0.155,0.225
3.900000000000091,-0.165,0.21
3.9027777777778283,-0.175,0.195
3.9055555555555657,-0.195,0.2
3.908333333333303,-0.19,0.22
3.9111111111110404,-0.195,0.22
3.9138888888887777,-0.18,0.23
3.9166666666667425,-0.2,0.235
3.919444444,-0.215,0.215
3.922222222222217,-0.24,0.215
3.9249999999999545,-0.24,0.225
3.927777777777692,-0.215,0.235
3.9305555555554292,-0.22,0.235
3.933333333333394,-0.215,0.23
3.9361111111111313,-0.23,0.215
3.9388888888888687,-0.24,0.21
3.941666666666606,-0.245,0.24
3.9444444444445708,-0.23,0.245
3.947222222222308,-0.21,0.245
3.9500000000000455,-0.23,0.235
3.952777777777783,-0.245,0.22
3.955555556,-0.245,0.205
3.9583333333332575,-0.235,0.215
3.9611111111112223,-0.21,0.22
3.9638888888889596,-0.195,0.22
3.966666666666697,-0.2,0.215
3.9694444444444343,-0.21,0.195
3.9722222222221717,-0.23,0.19
3.974999999999909,-0.23,0.2
3.977777777777874,-0.2,0.215
3.980555555555611,-0.175,0.2
3.9833333333333485,-0.18,0.2
3.986111111111086,-0.175,0.175
3.988888888888823,-0.195,0.17
3.9916666666665606,-0.18,0.165
3.9944444444445253,-0.165,0.195
3.9972222222222626,-0.145,0.195
4,-0.135,0.175
4.002777777777737,-0.14,0.17
4.005555555555475,-0.155,0.15
4.008333333333439,-0.145,0.16
4.011111111111177,-0.15,0.165
4.013888888888914,-0.11,0.165
4.0166666666666515,-0.11,0.155
4.019444444444389,-0.115,0.14
4.022222222222126,-0.125,0.145
4.025000000000091,-0.125,0.15
4.027777777777828,-0.11,0.16
4.030555555555566,-0.105,0.155
4.033333333333303,-0.095,0.15
4.036111111,-0.105,0.135
4.038888888888778,-0.115,0.14
4.0416666666667425,-0.105,0.135
4.044444444,-0.085,0.155
4.047222222222217,-0.08,0.155
4.0499999999999545,-0.085,0.15
4.052777777777692,-0.1,0.13
4.055555555555429,-0.1,0.13
4.058333333333394,-0.095,0.145
4.061111111111131,-0.075,0.16
4.063888888888869,-0.05,0.15
4.066666666666606,-0.06,0.14
4.069444444444571,-0.07,0.135
4.072222222222308,-0.085,0.135
4.0750000000000455,-0.065,0.14
4.077777777777783,-0.065,0.145
4.080555556,-0.055,0.165
4.0833333333332575,-0.07,0.15
4.086111111111222,-0.075,0.125
4.088888889,-0.095,0.13
4.091666666666697,-0.09,0.14
4.094444444444434,-0.085,0.15
4.097222222222172,-0.035,0.155
4.099999999999909,-0.055,0.14
4.102777777777874,-0.065,0.13
4.105555555555611,-0.07,0.125
4.1083333333333485,-0.075,0.14
4.111111111111086,-0.06,0.16
4.113888888888823,-0.05,0.155
4.116666666666561,-0.05,0.15
4.119444444444525,-0.055,0.135
4.122222222222263,-0.065,0.135
4.125,-0.07,0.135
4.127777777777737,-0.06,0.155
4.130555555555475,-0.055,0.155
4.133333333333439,-0.05,0.14
4.136111111111177,-0.06,0.13
4.138888888888914,-0.065,0.125
4.1416666666666515,-0.08,0.13
4.144444444444389,-0.07,0.135
4.147222222222126,-0.06,0.14
4.150000000000091,-0.06,0.135
4.152777777777828,-0.06,0.135
4.155555555555566,-0.08,0.125
4.158333333333303,-0.07,0.14
4.161111111,-0.08,0.145
4.163888888888778,-0.045,0.14
4.1666666666667425,-0.05,0.135
4.169444444,-0.05,0.125
4.172222222222217,-0.07,0.12
4.1749999999999545,-0.07,0.125
4.177777777777692,-0.065,0.15
4.180555555555429,-0.045,0.15
4.183333333333394,-0.05,0.13
4.186111111111131,-0.06,0.12
4.188888888888869,-0.06,0.12
4.191666666666606,-0.06,0.13
4.194444444444571,-0.055,0.145
4.197222222222308,-0.035,0.135
4.2000000000000455,-0.035,0.13
4.202777777777783,-0.05,0.14
4.205555556,-0.05,0.125
4.2083333333332575,-0.08,0.14
4.211111111111222,-0.06,0.14
4.213888889,-0.045,0.145
4.216666666666697,-0.05,0.14
4.219444444444434,-0.055,0.12
4.222222222222172,-0.07,0.12
4.224999999999909,-0.065,0.125
4.227777777777874,-0.045,0.14
4.230555555555611,-0.04,0.13
4.2333333333333485,-0.06,0.135
4.236111111111086,-0.06,0.115
4.238888888888823,-0.07,0.12
4.241666666666561,-0.075,0.125
4.244444444444525,-0.06,0.14
4.247222222222263,-0.04,0.14
4.25,-0.05,0.125
4.252777777777737,-0.06,0.11
4.255555555555475,-0.065,0.1
4.258333333333439,-0.065,0.125
4.261111111111177,-0.055,0.13
4.263888888888914,-0.045,0.135
4.2666666666666515,-0.06,0.115
4.269444444444389,-0.06,0.115
4.272222222222126,-0.07,0.11
4.275000000000091,-0.065,0.12
4.277777777777828,-0.06,0.15
4.280555555555566,-0.045,0.145
4.283333333333303,-0.05,0.13
4.286111111,-0.05,0.115
4.288888888888778,-0.07,0.105
4.2916666666667425,-0.055,0.12
4.294444444,-0.05,0.135
4.297222222222217,-0.035,0.14
4.2999999999999545,-0.04,0.13
4.302777777777692,-0.065,0.115
4.305555555555429,-0.065,0.115
4.308333333333394,-0.07,0.125
4.311111111111131,-0.055,0.13
4.313888888888869,-0.035,0.145
4.316666666666606,-0.045,0.125
4.319444444444571,-0.06,0.125
4.322222222222308,-0.075,0.12
4.3250000000000455,-0.055,0.135
4.327777777777783,-0.045,0.145
4.330555556,-0.035,0.145
4.3333333333332575,-0.055,0.125
4.336111111111222,-0.06,0.12
4.338888889,-0.06,0.12
4.341666666666697,-0.055,0.12
4.344444444444434,-0.055,0.13
4.347222222222172,-0.03,0.145
4.349999999999909,-0.04,0.13
4.352777777777874,-0.05,0.12
4.355555555555611,-0.055,0.13
4.3583333333333485,-0.06,0.13
4.361111111111086,-0.045,0.13
4.363888888888823,-0.03,0.14
4.366666666666561,-0.035,0.115
4.369444444444525,-0.04,0.115
4.372222222222263,-0.055,0.115
4.375,-0.05,0.125
4.377777777777737,-0.04,0.135
4.380555555555475,-0.035,0.14
4.383333333333439,-0.03,0.13
4.386111111111177,-0.045,0.1
4.388888888888914,-0.05,0.12
4.3916666666666515,-0.055,0.12
4.394444444444389,-0.045,0.15
4.397222222222126,-0.035,0.14
4.400000000000091,-0.035,0.12
4.402777777777828,-0.04,0.115
4.405555555555566,-0.06,0.11
4.408333333333303,-0.065,0.13
4.411111111,-0.045,0.135
4.413888888888778,-0.025,0.14
4.4166666666667425,-0.03,0.13
4.419444444,-0.04,0.11
4.422222222222217,-0.05,0.12
4.4249999999999545,-0.05,0.13
4.427777777777692,-0.045,0.15
4.430555555555429,-0.03,0.135
4.433333333333394,-0.035,0.135
4.436111111111131,-0.03,0.1
4.438888888888869,-0.04,0.105
4.441666666666606,-0.055,0.115
4.444444444444571,-0.055,0.135
4.447222222222308,-0.04,0.135
4.4500000000000455,-0.055,0.13
4.452777777777783,-0.07,0.115
4.455555556,-0.075,0.105
4.4583333333332575,-0.08,0.125
4.461111111111222,-0.07,0.14
4.463888889,-0.06,0.135
4.466666666666697,-0.065,0.13
4.469444444444434,-0.085,0.125
4.472222222222172,-0.09,0.11
4.474999999999909,-0.085,0.12
4.477777777777874,-0.07,0.125
4.480555555555611,-0.07,0.135
4.4833333333333485,-0.06,0.13
4.486111111111086,-0.075,0.115
4.488888888888823,-0.085,0.115
4.491666666666561,-0.08,0.13
4.494444444444525,-0.06,0.12
4.497222222222263,-0.05,0.135
4.5,-0.05,0.125
4.502777777777737,-0.06,0.1
4.505555555555475,-0.105,0.1
4.508333333333439,-0.09,0.115
4.511111111111177,-0.09,0.13
4.513888888888914,-0.08,0.135
4.5166666666666515,-0.075,0.125
4.519444444444389,-0.095,0.11
4.522222222222126,-0.1,0.115
4.525000000000091,-0.11,0.125
4.527777777777828,-0.11,0.13
4.530555555555566,-0.1,0.13
4.533333333333303,-0.105,0.12
4.536111111,-0.12,0.11
4.538888888888778,-0.12,0.115
4.5416666666667425,-0.125,0.13
4.544444444,-0.125,0.13
4.547222222222217,-0.11,0.145
4.5499999999999545,-0.11,0.125
4.552777777777692,-0.12,0.105
4.555555555555429,-0.115,0.095
4.558333333333394,-0.13,0.105
4.561111111111131,-0.11,0.13
4.563888888888869,-0.11,0.13
4.566666666666606,-0.11,0.12
4.569444444444571,-0.125,0.105
4.572222222222308,-0.14,0.11
4.5750000000000455,-0.125,0.1
4.577777777777783,-0.115,0.125
4.580555556,-0.1,0.13
4.5833333333332575,-0.1,0.115
4.586111111111222,-0.12,0.105
4.588888889,-0.13,0.095
4.591666666666697,-0.14,0.11
4.594444444444434,-0.125,0.125
4.597222222222172,-0.11,0.12
4.599999999999909,-0.115,0.12
4.602777777777874,-0.13,0.12
4.605555555555611,-0.14,0.115
4.6083333333333485,-0.13,0.165
4.611111111111086,-0.12,0.225
4.613888888888823,-0.095,0.275
4.616666666666561,-0.115,0.265
4.619444444444525,-0.135,0.25
4.622222222222263,-0.145,0.195
4.625,-0.18,0.12
4.627777777777737,-0.205,-0.005
4.630555555555475,-0.22,-0.18
4.633333333333439,-0.21,-0.395
4.636111111111177,-0.15,-0.58
4.638888888888914,-0.02,-0.735
4.6416666666666515,0.21,-0.775
4.644444444444389,0.475,-0.72
4.647222222222126,0.71,-0.65
4.650000000000091,0.855,-0.56
4.652777777777828,0.865,-0.445
4.655555555555566,0.695,-0.335
4.658333333333303,0.415,-0.195
4.661111111,0.11,-0.065
4.663888888888778,-0.08,0.045
4.6666666666667425,-0.185,0.1
4.669444444,-0.195,0.1
4.672222222222217,-0.165,0.1
4.6749999999999545,-0.175,0.105
4.677777777777692,-0.16,0.115
4.680555555555429,-0.175,0.095
4.683333333333394,-0.2,0.08
4.686111111111131,-0.245,0.065
4.688888888888869,-0.28,0.055
4.691666666666606,-0.31,0.065
4.694444444444571,-0.315,0.09
4.697222222222308,-0.32,0.08
4.7000000000000455,-0.33,0.09
4.702777777777783,-0.32,0.07
4.705555556,-0.29,0.1
4.7083333333332575,-0.27,0.135
4.711111111111222,-0.245,0.17
4.713888889,-0.21,0.185
4.716666666666697,-0.21,0.17
4.719444444444434,-0.195,0.155
4.722222222222172,-0.195,0.15
4.724999999999909,-0.18,0.17
4.727777777777874,-0.15,0.18
4.730555555555611,-0.135,0.18
4.7333333333333485,-0.16,0.17
4.736111111111086,-0.17,0.155
4.738888888888823,-0.165,0.155
4.741666666666561,-0.175,0.155
4.744444444444525,-0.17,0.175
4.747222222222263,-0.15,0.155
4.75,-0.16,0.165
4.752777777777737,-0.17,0.145
4.755555555555475,-0.18,0.135
4.758333333333439,-0.175,0.15
4.761111111111177,-0.16,0.17
4.763888888888914,-0.145,0.18
4.7666666666666515,-0.15,0.165
4.769444444444389,-0.16,0.145
4.772222222222126,-0.175,0.145
4.775000000000091,-0.17,0.155
4.777777777777828,-0.155,0.175
4.780555555555566,-0.145,0.185
4.783333333333303,-0.15,0.175
4.786111111,-0.165,0.17
4.788888888888778,-0.165,0.16
4.7916666666667425,-0.165,0.16
4.794444444,-0.155,0.18
4.797222222222217,-0.14,0.185
4.7999999999999545,-0.14,0.18
4.802777777777692,-0.165,0.165
4.805555555555429,-0.17,0.16
4.808333333333394,-0.175,0.175
4.811111111111131,-0.16,0.195
4.813888888888869,-0.14,0.195
4.816666666666606,-0.15,0.175
4.819444444444571,-0.165,0.165
4.822222222222308,-0.18,0.155
4.8250000000000455,-0.185,0.185
4.827777777777783,-0.175,0.2
4.830555556,-0.155,0.205
4.8333333333332575,-0.155,0.2
4.836111111111222,-0.17,0.18
4.838888889,-0.175,0.175
4.841666666666697,-0.175,0.19
4.844444444444434,-0.155,0.2
4.847222222222172,-0.13,0.205
4.849999999999909,-0.15,0.195
4.852777777777874,-0.16,0.195
4.855555555555611,-0.165,0.185
4.8583333333333485,-0.16,0.195
4.861111111111086,-0.14,0.215
4.863888888888823,-0.13,0.21
4.866666666666561,-0.145,0.21
4.869444444444525,-0.14,0.195
4.872222222222263,-0.17,0.205
4.875,-0.185,0.2
4.877777777777737,-0.16,0.225
4.880555555555475,-0.14,0.225
4.883333333333439,-0.14,0.205
4.886111111111177,-0.145,0.19
4.888888888888914,-0.165,0.18
4.8916666666666515,-0.165,0.2
4.894444444444389,-0.16,0.205
4.897222222222126,-0.155,0.205
4.900000000000091,-0.16,0.205
4.902777777777828,-0.175,0.19
4.905555555555566,-0.2,0.19
4.908333333333303,-0.205,0.185
4.911111111,-0.19,0.21
4.913888888888778,-0.175,0.195
4.9166666666667425,-0.185,0.19
4.919444444,-0.2,0.18
4.922222222222217,-0.225,0.17
4.9249999999999545,-0.225,0.19
4.927777777777692,-0.21,0.2
4.930555555555429,-0.205,0.195
4.933333333333394,-0.23,0.175
4.936111111111131,-0.255,0.17
4.938888888888869,-0.29,0.17
4.941666666666606,-0.305,0.16
4.944444444444571,-0.3,0.195
4.947222222222308,-0.28,0.2
4.9500000000000455,-0.29,0.17
4.952777777777783,-0.31,0.17
4.955555556,-0.31,0.16
4.9583333333332575,-0.325,0.17
4.961111111111222,-0.33,0.16
4.963888889,-0.345,0.17
4.966666666666697,-0.36,0.155
4.969444444444434,-0.365,0.15
4.972222222222172,-0.38,0.145
4.974999999999909,-0.375,0.15
4.977777777777874,-0.37,0.165
4.980555555555611,-0.365,0.17
4.9833333333333485,-0.37,0.145
4.986111111111086,-0.37,0.12
4.988888888888823,-0.375,0.13
4.991666666666561,-0.36,0.13
4.994444444444525,-0.36,0.145
4.997222222222263,-0.35,0.15
5,-0.355,0.135
5.002777777777737,-0.355,0.12
5.005555555555475,-0.38,0.115
5.008333333333439,-0.37,0.12
5.011111111111177,-0.365,0.135
5.013888888888914,-0.34,0.135
5.0166666666666515,-0.355,0.125
5.019444444444389,-0.36,0.12
5.022222222222126,-0.38,0.105
5.025000000000091,-0.39,0.125
5.027777777777828,-0.385,0.12
5.030555555555566,-0.36,0.115
5.033333333333303,-0.365,0.105
5.036111111,-0.38,0.085
5.038888888888778,-0.38,0.09
5.0416666666667425,-0.38,0.085
5.044444444,-0.36,0.095
5.047222222222217,-0.365,0.095
5.0499999999999545,-0.345,0.09
5.052777777777692,-0.365,0.08
5.055555555555429,-0.37,0.08
5.058333333333394,-0.37,0.09
5.061111111111131,-0.36,0.105
5.063888888888869,-0.345,0.115
5.066666666666606,-0.33,0.115
5.069444444444571,-0.335,0.085
5.072222222222308,-0.325,0.105
5.0750000000000455,-0.325,0.11
5.077777777777783,-0.28,0.115
5.080555556,-0.255,0.11
5.0833333333332575,-0.235,0.1
5.086111111111222,-0.23,0.08
5.088888889,-0.27,0.075
5.091666666666697,-0.29,0.075
5.094444444444434,-0.305,0.095
5.097222222222172,-0.325,0.1
5.099999999999909,-0.335,0.095
5.102777777777874,-0.35,0.095
5.105555555555611,-0.37,0.095
5.1083333333333485,-0.37,0.12
5.111111111111086,-0.355,0.13
5.113888888888823,-0.325,0.14
5.116666666666561,-0.325,0.14
5.119444444444525,-0.33,0.11
5.122222222222263,-0.345,0.095
5.125,-0.335,0.09
5.127777777777737,-0.34,0.08
5.130555555555475,-0.33,0.08
5.133333333333439,-0.345,0.055
5.136111111111177,-0.365,0.04
5.138888888888914,-0.39,0.04
5.1416666666666515,-0.39,0.035
5.144444444444389,-0.39,0.04
5.147222222222126,-0.38,0.045
5.150000000000091,-0.385,0.04
5.152777777777828,-0.4,0.03
5.155555555555566,-0.405,0.03
5.158333333333303,-0.405,0.035
5.161111111,-0.385,0.06
5.163888888888778,-0.365,0.06
5.1666666666667425,-0.37,0.045
5.169444444,-0.39,0.035
5.172222222222217,-0.4,0.035
5.1749999999999545,-0.395,0.04
5.177777777777692,-0.36,0.05
5.180555555555429,-0.355,0.055
5.183333333333394,-0.35,0.055
5.186111111111131,-0.365,0.05
5.188888888888869,-0.365,0.08
5.191666666666606,-0.365,0.12
5.194444444444571,-0.355,0.185
5.197222222222308,-0.34,0.195
5.2000000000000455,-0.355,0.165
5.202777777777783,-0.38,0.105
5.205555556,-0.445,0.02
5.2083333333332575,-0.49,-0.095
5.211111111111222,-0.53,-0.265
5.213888889,-0.535,-0.47
5.216666666666697,-0.505,-0.65
5.219444444444434,-0.425,-0.785
5.222222222222172,-0.26,-0.88
5.224999999999909,-0.02,-0.86
5.227777777777874,0.27,-0.775
5.230555555555611,0.46,-0.61
5.2333333333333485,0.465,-0.43
5.236111111111086,0.245,-0.29
5.238888888888823,-0.095,-0.15
5.241666666666561,-0.365,-0.01
5.244444444444525,-0.5,0.09
5.247222222222263,-0.485,0.15
5.25,-0.41,0.14
5.252777777777737,-0.315,0.125
5.255555555555475,-0.285,0.12
5.258333333333439,-0.285,0.135
5.261111111111177,-0.295,0.145
5.263888888888914,-0.31,0.15
5.2666666666666515,-0.305,0.135
5.269444444444389,-0.31,0.12
5.272222222222126,-0.305,0.105
5.275000000000091,-0.31,0.105
5.277777777777828,-0.29,0.13
5.280555555555566,-0.275,0.145
5.283333333333303,-0.28,0.125
5.286111111,-0.285,0.12
5.288888888888778,-0.28,0.1
5.2916666666667425,-0.28,0.115
5.294444444,-0.26,0.135
5.297222222222217,-0.255,0.135
5.2999999999999545,-0.235,0.125
5.302777777777692,-0.25,0.12
5.305555555555429,-0.265,0.115
5.308333333333394,-0.245,0.12
5.311111111111131,-0.245,0.13
5.313888888888869,-0.23,0.135
5.316666666666606,-0.22,0.12
5.319444444444571,-0.24,0.115
5.322222222222308,-0.23,0.125
5.3250000000000455,-0.21,0.13
5.327777777777783,-0.205,0.145
5.330555556,-0.185,0.155
5.3333333333332575,-0.19,0.14
5.336111111111222,-0.195,0.135
5.338888889,-0.21,0.12
5.341666666666697,-0.195,0.135
5.344444444444434,-0.19,0.135
5.347222222222172,-0.17,0.145
5.349999999999909,-0.18,0.145
5.352777777777874,-0.185,0.125
5.355555555555611,-0.195,0.125
5.3583333333333485,-0.205,0.155
5.361111111111086,-0.165,0.16
5.363888888888823,-0.145,0.165
5.366666666666561,-0.145,0.135
5.369444444444525,-0.16,0.135
5.372222222222263,-0.17,0.14
5.375,-0.155,0.14
5.377777777777737,-0.14,0.155
5.380555555555475,-0.125,0.16
5.383333333333439,-0.13,0.15
5.386111111111177,-0.125,0.14
5.388888888888914,-0.14,0.13
5.3916666666666515,-0.14,0.15
5.394444444444389,-0.135,0.155
5.397222222222126,-0.12,0.16
5.400000000000091,-0.115,0.16
5.402777777777828,-0.12,0.15
5.405555555555566,-0.135,0.14
5.408333333333303,-0.13,0.145
5.411111111,-0.12,0.155
5.413888888888778,-0.1,0.155
5.4166666666667425,-0.11,0.14
5.419444444,-0.13,0.125
5.422222222222217,-0.125,0.135
5.4249999999999545,-0.105,0.145
5.427777777777692,-0.1,0.155
5.430555555555429,-0.09,0.155
5.433333333333394,-0.105,0.13
5.436111111111131,-0.13,0.12
5.438888888888869,-0.14,0.125
5.441666666666606,-0.135,0.14
5.444444444444571,-0.12,0.145
5.447222222222308,-0.115,0.145
5.4500000000000455,-0.135,0.14
5.452777777777783,-0.145,0.135
5.455555556,-0.16,0.105
5.4583333333332575,-0.165,0.125
5.461111111111222,-0.15,0.125
5.463888889,-0.15,0.135
5.466666666666697,-0.175,0.115
5.469444444444434,-0.19,0.105
5.472222222222172,-0.205,0.1
5.474999999999909,-0.21,0.115
5.477777777777874,-0.205,0.115
5.480555555555611,-0.19,0.115
5.4833333333333485,-0.185,0.11
5.486111111111086,-0.2,0.1
5.488888888888823,-0.21,0.095
5.491666666666561,-0.205,0.1
5.494444444444525,-0.185,0.125
5.497222222222263,-0.175,0.135
5.5,-0.175,0.115
5.502777777777737,-0.185,0.1
5.505555555555475,-0.2,0.09
5.508333333333439,-0.2,0.115
5.511111111111177,-0.2,0.125
5.513888888888914,-0.165,0.125
5.5166666666666515,-0.16,0.115
5.519444444444389,-0.155,0.105
5.522222222222126,-0.165,0.095
5.525000000000091,-0.175,0.11
5.527777777777828,-0.17,0.12
5.530555555555566,-0.155,0.115
5.533333333333303,-0.155,0.1
5.536111111,-0.16,0.09
5.538888888888778,-0.17,0.08
5.5416666666667425,-0.16,0.095
5.544444444,-0.145,0.115
5.547222222222217,-0.135,0.11
5.5499999999999545,-0.14,0.095
5.552777777777692,-0.15,0.09
5.555555555555429,-0.17,0.075
5.558333333333394,-0.15,0.085
5.561111111111131,-0.155,0.085
5.563888888888869,-0.145,0.1
5.566666666666606,-0.12,0.085
5.569444444444571,-0.125,0.075
5.572222222222308,-0.13,0.075
5.5750000000000455,-0.145,0.085
5.577777777777783,-0.13,0.1
5.580555556,-0.125,0.095
5.5833333333332575,-0.125,0.085
5.586111111111222,-0.125,0.08
5.588888889,-0.125,0.075
5.591666666666697,-0.14,0.1
5.594444444444434,-0.115,0.115
5.597222222222172,-0.12,0.1
5.599999999999909,-0.12,0.085
5.602777777777874,-0.12,0.065
5.605555555555611,-0.14,0.065
5.6083333333333485,-0.145,0.07
5.611111111111086,-0.115,0.08
5.613888888888823,-0.09,0.09
5.616666666666561,-0.085,0.08
5.619444444444525,-0.09,0.07
5.622222222222263,-0.115,0.065
5.625,-0.1,0.065
5.627777777777737,-0.09,0.09
5.630555555555475,-0.075,0.085
5.633333333333439,-0.075,0.09
5.636111111111177,-0.09,0.08
5.638888888888914,-0.095,0.075
5.6416666666666515,-0.085,0.085
5.644444444444389,-0.08,0.09
5.647222222222126,-0.075,0.09
5.650000000000091,-0.075,0.085
5.652777777777828,-0.08,0.055
5.655555555555566,-0.095,0.06
5.658333333333303,-0.075,0.075
5.661111111,-0.075,0.09
5.663888888888778,-0.055,0.095
5.6666666666667425,-0.06,0.09
5.669444444,-0.08,0.065
5.672222222222217,-0.095,0.065
5.6749999999999545,-0.09,0.06
5.677777777777692,-0.085,0.07
5.680555555555429,-0.06,0.065
5.683333333333394,-0.065,0.07
5.686111111111131,-0.08,0.055
5.688888888888869,-0.085,0.06
5.691666666666606,-0.085,0.07
5.694444444444571,-0.065,0.08
5.697222222222308,-0.04,0.08
5.7000000000000455,-0.04,0.07
5.702777777777783,-0.06,0.05
5.705555556,-0.08,0.055
5.7083333333332575,-0.07,0.06
5.711111111111222,-0.045,0.07
5.713888889,-0.035,0.07
5.716666666666697,-0.045,0.06
5.719444444444434,-0.065,0.055
5.722222222222172,-0.075,0.045
5.724999999999909,-0.075,0.055
5.727777777777874,-0.065,0.055
5.730555555555611,-0.04,0.085
5.7333333333333485,-0.05,0.075
5.736111111111086,-0.05,0.05
5.738888888888823,-0.055,0.04
5.741666666666561,-0.055,0.055
5.744444444444525,-0.04,0.07
5.747222222222263,-0.025,0.075
5.75,-0.025,0.075
5.752777777777737,-0.045,0.055
5.755555555555475,-0.055,0.065
5.758333333333439,-0.07,0.06
5.761111111111177,-0.065,0.075
5.763888888888914,-0.035,0.065
5.7666666666666515,-0.05,0.055
5.769444444444389,-0.035,0.04
5.772222222222126,-0.045,0.04
5.775000000000091,-0.035,0.04
5.777777777777828,-0.035,0.07
5.780555555555566,-0.025,0.065
5.783333333333303,-0.035,0.055
5.786111111,-0.045,0.05
5.788888888888778,-0.055,0.045
5.7916666666667425,-0.04,0.065
5.794444444,-0.035,0.065
5.797222222222217,-0.03,0.08
5.7999999999999545,-0.04,0.06
5.802777777777692,-0.05,0.045
5.805555555555429,-0.07,0.03
5.808333333333394,-0.065,0.045
5.811111111111131,-0.03,0.05
5.813888888888869,-0.025,0.075
5.816666666666606,-0.03,0.06
5.819444444444571,-0.04,0.05
5.822222222222308,-0.055,0.05
5.8250000000000455,-0.055,0.05
5.827777777777783,-0.025,0.075
5.830555556,0.005,0.075
5.8333333333332575,0,0.07
5.836111111111222,-0.03,0.055
5.838888889,-0.05,0.045
5.841666666666697,-0.05,0.065
5.844444444444434,-0.035,0.055
5.847222222222172,-0.005,0.065
5.849999999999909,0,0.055
5.852777777777874,-0.02,0.04
5.855555555555611,-0.04,0.06
5.8583333333333485,-0.04,0.08
5.861111111111086,-0.04,0.08
5.863888888888823,-0.02,0.075
5.866666666666561,-0.02,0.055
5.869444444444525,-0.03,0.055
5.872222222222263,-0.04,0.06
5.875,-0.035,0.07
5.877777777777737,-0.035,0.065
5.880555555555475,-0.035,0.07
5.883333333333439,-0.035,0.075
5.886111111111177,-0.055,0.06
5.888888888888914,-0.065,0.055
5.8916666666666515,-0.045,0.065
5.894444444444389,-0.02,0.075
5.897222222222126,-0.015,0.085
5.900000000000091,-0.025,0.075
5.902777777777828,-0.055,0.06
5.905555555555566,-0.06,0.07
5.908333333333303,-0.07,0.08
5.911111111,-0.06,0.075
5.913888888888778,-0.05,0.08
5.9166666666667425,-0.055,0.08
5.919444444,-0.06,0.075
5.922222222222217,-0.055,0.075
5.9249999999999545,-0.05,0.085
5.927777777777692,-0.03,0.075
5.930555555555429,0.005,0.07
5.933333333333394,-0.005,0.065
5.936111111111131,-0.015,0.07
5.938888888888869,-0.02,0.06
5.941666666666606,-0.035,0.07
5.944444444444571,-0.01,0.08
5.947222222222308,0.005,0.09
5.9500000000000455,-0.015,0.085
5.952777777777783,-0.06,0.07
5.955555556,-0.08,0.06
5.9583333333332575,-0.085,0.075
5.961111111111222,-0.07,0.085
5.963888889,-0.05,0.085
5.966666666666697,-0.05,0.07
5.969444444444434,-0.055,0.065
5.972222222222172,-0.035,0.055
5.974999999999909,-0.03,0.07
5.977777777777874,-0.02,0.075
5.980555555555611,-0.01,0.075
5.9833333333333485,-0.04,0.08
5.986111111111086,-0.055,0.06
5.988888888888823,-0.055,0.06
5.991666666666561,-0.045,0.08
5.994444444444525,-0.03,0.085
5.997222222222263,-0.01,0.07
6,-0.03,0.06
6.002777777777737,-0.05,0.06
6.005555555555475,-0.05,0.05
6.008333333333439,-0.04,0.075
6.011111111111177,-0.015,0.09
6.013888888888914,-0.005,0.095
6.0166666666666515,-0.005,0.095
6.019444444444389,-0.02,0.08
6.022222222222126,-0.06,0.08
6.025000000000091,-0.055,0.08
6.027777777777828,-0.04,0.095
6.030555555555566,-0.015,0.075
6.033333333333303,-0.01,0.055
6.036111111,-0.035,0.04
6.038888888888778,-0.05,0.035
6.0416666666667425,-0.07,0.055
6.044444444,-0.05,0.085
6.047222222222217,-0.03,0.09
6.0499999999999545,-0.02,0.075
6.052777777777692,-0.04,0.075
6.055555555555429,-0.04,0.07
6.058333333333394,-0.04,0.075
6.061111111111131,-0.04,0.085
6.063888888888869,-0.025,0.095
6.066666666666606,-0.02,0.09
6.069444444444571,-0.02,0.09
6.072222222222308,-0.015,0.08
6.0750000000000455,-0.02,0.095
6.077777777777783,-0.02,0.1
6.080555556,-0.015,0.105
6.0833333333332575,-0.025,0.105
6.086111111111222,-0.04,0.08
6.088888889,-0.045,0.065
6.091666666666697,-0.04,0.065
6.094444444444434,-0.02,0.08
6.097222222222172,-0.01,0.08
6.099999999999909,-0.02,0.065
6.102777777777874,-0.035,0.06
6.105555555555611,-0.04,0.05
6.1083333333333485,-0.03,0.06
6.111111111111086,0.01,0.055
6.113888888888823,0.04,0.05
6.116666666666561,0.05,0.025
6.119444444444525,0.035,-0.015
6.122222222222263,0.03,-0.015
6.125,0.055,-0.005
6.127777777777737,0.09,0.01
6.130555555555475,0.105,0.02
6.133333333333439,0.105,0.04
6.136111111111177,0.13,0.05
6.138888888888914,0.125,0.1
6.1416666666666515,0.12,0.175
6.144444444444389,0.1,0.23
6.147222222222126,0.095,0.245
6.150000000000091,0.075,0.225
6.152777777777828,0.02,0.19
6.155555555555566,-0.015,0.1
6.158333333333303,-0.025,-0.045
6.161111111,0,-0.27
6.163888888888778,0.075,-0.515
6.1666666666667425,0.215,-0.72
6.169444444,0.435,-0.825
6.172222222222217,0.7,-0.8
6.1749999999999545,0.965,-0.705
6.177777777777692,1.14,-0.565
6.180555555555429,1.185,-0.43
6.183333333333394,0.985,-0.3
6.186111111111131,0.63,-0.165
6.188888888888869,0.275,-0.005
6.191666666666606,0.065,0.12
6.194444444444571,0.01,0.18
6.197222222222308,0.05,0.2
6.2000000000000455,0.065,0.18
6.202777777777783,0.055,0.175
6.205555556,0.015,0.17
6.2083333333332575,-0.015,0.17
6.211111111111222,-0.01,0.2
6.213888889,0,0.195
6.216666666666697,-0.015,0.19
6.219444444444434,-0.035,0.165
6.222222222222172,-0.045,0.165
6.224999999999909,-0.04,0.165
6.227777777777874,-0.04,0.195
6.230555555555611,-0.01,0.185
6.2333333333333485,-0.005,0.185
6.236111111111086,-0.01,0.165
6.238888888888823,-0.02,0.165
6.241666666666561,-0.015,0.18
6.244444444444525,-0.005,0.19
6.247222222222263,0.005,0.195
6.25,0.015,0.175
6.252777777777737,0,0.16
6.255555555555475,-0.005,0.17
6.258333333333439,0,0.17
6.261111111111177,0.01,0.18
6.263888888888914,0.025,0.2
6.2666666666666515,0,0.195
6.269444444444389,-0.01,0.185
6.272222222222126,-0.005,0.195
6.275000000000091,0.02,0.22
6.277777777777828,0.025,0.225
6.280555555555566,0.03,0.22
6.283333333333303,0.02,0.215
6.286111111,0.025,0.2
6.288888888888778,0.01,0.19
6.2916666666667425,0.02,0.2
6.294444444,0.025,0.225
6.297222222222217,0.02,0.21
6.2999999999999545,0.035,0.19
6.302777777777692,0.02,0.18
6.305555555555429,0.01,0.18
6.308333333333394,0.005,0.21
6.311111111111131,0.02,0.225
6.313888888888869,0.03,0.23
6.316666666666606,0.025,0.22
6.319444444444571,0.025,0.195
6.322222222222308,0.03,0.195
6.3250000000000455,0.025,0.2
6.327777777777783,0.02,0.22
6.330555556,0.045,0.21
6.3333333333332575,0.04,0.205
6.336111111111222,0.02,0.2
6.338888889,-0.005,0.205
6.341666666666697,0.005,0.215
6.344444444444434,0.025,0.23
6.347222222222172,0.045,0.22
6.349999999999909,0.055,0.215
6.352777777777874,0.035,0.205
6.355555555555611,0.015,0.205
6.3583333333333485,0.015,0.23
6.361111111111086,0.045,0.255
6.363888888888823,0.06,0.25
6.366666666666561,0.03,0.235
6.369444444444525,0.02,0.215
6.372222222222263,0.02,0.22
6.375,0.035,0.205
6.377777777777737,0.035,0.23
6.380555555555475,0.02,0.22
6.383333333333439,0.015,0.21
6.386111111111177,0.005,0.19
6.388888888888914,-0.01,0.185
6.3916666666666515,0.005,0.195
6.394444444444389,0.01,0.21
6.397222222222126,0.005,0.215
6.400000000000091,-0.01,0.205
6.402777777777828,-0.015,0.205
6.405555555555566,-0.01,0.195
6.408333333333303,-0.015,0.21
6.411111111,-0.005,0.2
6.413888888888778,0.015,0.205
6.4166666666667425,-0.005,0.185
6.419444444,-0.03,0.15
6.422222222222217,-0.04,0.155
6.4249999999999545,-0.045,0.155
6.427777777777692,-0.035,0.175
6.430555555555429,-0.03,0.175
6.433333333333394,-0.05,0.165
6.436111111111131,-0.07,0.14
6.438888888888869,-0.095,0.135
6.441666666666606,-0.09,0.135
6.444444444444571,-0.08,0.135
6.447222222222308,-0.08,0.14
6.4500000000000455,-0.08,0.145
6.452777777777783,-0.105,0.13
6.455555556,-0.11,0.14
6.4583333333332575,-0.095,0.155
6.461111111111222,-0.075,0.16
6.463888889,-0.04,0.165
6.466666666666697,-0.035,0.155
6.469444444444434,-0.015,0.14
6.472222222222172,0.005,0.15
6.474999999999909,0.025,0.14
6.477777777777874,0.005,0.15
6.480555555555611,-0.005,0.15
6.4833333333333485,-0.025,0.135
6.486111111111086,-0.07,0.14
6.488888888888823,-0.1,0.145
6.491666666666561,-0.11,0.17
6.494444444444525,-0.125,0.185
6.497222222222263,-0.085,0.195
6.5,-0.085,0.195
6.502777777777737,-0.1,0.205
6.505555555555475,-0.105,0.205
6.508333333333439,-0.1,0.19
6.511111111111177,-0.085,0.195
6.513888888888914,-0.075,0.155
6.5166666666666515,-0.12,0.14
6.519444444444389,-0.145,0.115
6.522222222222126,-0.155,0.105
6.525000000000091,-0.18,0.11
6.527777777777828,-0.19,0.105
6.530555555555566,-0.17,0.1
6.533333333333303,-0.185,0.085
6.536111111,-0.195,0.08
6.538888888888778,-0.21,0.065
6.5416666666667425,-0.2,0.085
6.544444444,-0.205,0.1
6.547222222222217,-0.205,0.085
6.5499999999999545,-0.2,0.075
6.552777777777692,-0.185,0.06
6.555555555555429,-0.18,0.07
6.558333333333394,-0.18,0.09
6.561111111111131,-0.175,0.095
6.563888888888869,-0.17,0.095
6.566666666666606,-0.185,0.085
6.569444444444571,-0.185,0.075
6.572222222222308,-0.19,0.06
6.5750000000000455,-0.195,0.07
6.577777777777783,-0.18,0.075
6.580555556,-0.18,0.08
6.5833333333332575,-0.19,0.055
6.586111111111222,-0.185,0.055
6.588888889,-0.2,0.045
6.591666666666697,-0.18,0.06
6.594444444444434,-0.18,0.075
6.597222222222172,-0.165,0.075
6.599999999999909,-0.175,0.075
6.602777777777874,-0.16,0.075
6.605555555555611,-0.17,0.085
6.6083333333333485,-0.155,0.14
6.611111111111086,-0.14,0.175
6.613888888888823,-0.13,0.175
6.616666666666561,-0.15,0.11
6.619444444444525,-0.18,0.005
6.622222222222263,-0.245,-0.13
6.625,-0.32,-0.3
6.627777777777737,-0.345,-0.465
6.630555555555475,-0.32,-0.64
6.633333333333439,-0.215,-0.78
6.636111111111177,-0.03,-0.89
6.638888888888914,0.21,-0.905
6.6416666666666515,0.475,-0.865
6.644444444444389,0.68,-0.72
6.647222222222126,0.77,-0.55
6.650000000000091,0.645,-0.385
6.652777777777828,0.335,-0.245
6.655555555555566,0.03,-0.12
6.658333333333303,-0.14,0.015
6.661111111,-0.19,0.1
6.663888888888778,-0.17,0.145
6.6666666666667425,-0.16,0.155
6.669444444,-0.135,0.14
6.672222222222217,-0.115,0.15
6.6749999999999545,-0.125,0.155
6.677777777777692,-0.115,0.18
6.680555555555429,-0.12,0.165
6.683333333333394,-0.13,0.15
6.686111111111131,-0.145,0.14
6.688888888888869,-0.145,0.13
6.691666666666606,-0.15,0.14
6.694444444444571,-0.14,0.145
6.697222222222308,-0.125,0.145
6.7000000000000455,-0.13,0.13
6.702777777777783,-0.155,0.12
6.705555556,-0.165,0.11
6.7083333333332575,-0.165,0.125
6.711111111111222,-0.145,0.135
6.713888889,-0.13,0.135
6.716666666666697,-0.15,0.14
6.719444444444434,-0.165,0.125
6.722222222222172,-0.17,0.11
6.724999999999909,-0.18,0.115
6.727777777777874,-0.16,0.12
6.730555555555611,-0.145,0.145
6.7333333333333485,-0.14,0.135
6.736111111111086,-0.15,0.13
6.738888888888823,-0.155,0.125
6.741666666666561,-0.17,0.14
6.744444444444525,-0.135,0.155
6.747222222222263,-0.125,0.14
6.75,-0.145,0.145
6.752777777777737,-0.165,0.12
6.755555555555475,-0.17,0.125
6.758333333333439,-0.16,0.14
6.761111111111177,-0.155,0.165
6.763888888888914,-0.14,0.155
6.7666666666666515,-0.15,0.15
6.769444444444389,-0.165,0.135
6.772222222222126,-0.19,0.14
6.775000000000091,-0.19,0.15
6.777777777777828,-0.18,0.165
6.780555555555566,-0.14,0.17
6.783333333333303,-0.15,0.165
6.786111111,-0.16,0.15
6.788888888888778,-0.165,0.145
6.7916666666667425,-0.17,0.16
6.794444444,-0.16,0.165
6.797222222222217,-0.15,0.155
6.7999999999999545,-0.165,0.155
6.802777777777692,-0.16,0.14
6.805555555555429,-0.175,0.15
6.808333333333394,-0.165,0.165
6.811111111111131,-0.155,0.175
6.813888888888869,-0.14,0.175
6.816666666666606,-0.16,0.155
6.819444444444571,-0.16,0.135
6.822222222222308,-0.175,0.135
6.8250000000000455,-0.195,0.14
6.827777777777783,-0.185,0.155
6.830555556,-0.19,0.14
6.8333333333332575,-0.19,0.15
6.836111111111222,-0.19,0.115
6.838888889,-0.22,0.12
6.841666666666697,-0.235,0.145
6.844444444444434,-0.205,0.14
6.847222222222172,-0.19,0.135
6.849999999999909,-0.2,0.135
6.852777777777874,-0.225,0.125
6.855555555555611,-0.235,0.125
6.8583333333333485,-0.25,0.135
6.861111111111086,-0.255,0.135
6.863888888888823,-0.25,0.145
6.866666666666561,-0.26,0.125
6.869444444444525,-0.28,0.115
6.872222222222263,-0.29,0.1
6.875,-0.305,0.11
6.877777777777737,-0.3,0.125
6.880555555555475,-0.29,0.12
6.883333333333439,-0.305,0.105
6.886111111111177,-0.335,0.1
6.888888888888914,-0.36,0.095
6.8916666666666515,-0.355,0.11
6.894444444444389,-0.35,0.12
6.897222222222126,-0.335,0.13
6.900000000000091,-0.35,0.1
6.902777777777828,-0.355,0.095
6.905555555555566,-0.4,0.09
6.908333333333303,-0.39,0.105
6.911111111,-0.385,0.13
6.913888888888778,-0.375,0.12
6.9166666666667425,-0.365,0.115
6.919444444,-0.37,0.095
6.922222222222217,-0.37,0.1
6.9249999999999545,-0.385,0.115
6.927777777777692,-0.38,0.125
6.930555555555429,-0.37,0.12
6.933333333333394,-0.36,0.1
6.936111111111131,-0.365,0.095
6.938888888888869,-0.365,0.07
6.941666666666606,-0.375,0.07
6.944444444444571,-0.375,0.09
6.947222222222308,-0.375,0.1
6.9500000000000455,-0.385,0.085
6.952777777777783,-0.4,0.08
6.955555556,-0.4,0.07
6.9583333333332575,-0.39,0.085
6.961111111111222,-0.37,0.095
6.963888889,-0.37,0.105
6.966666666666697,-0.38,0.085
6.969444444444434,-0.39,0.075
6.972222222222172,-0.39,0.07
6.974999999999909,-0.385,0.075
6.977777777777874,-0.405,0.08
6.980555555555611,-0.4,0.08
6.9833333333333485,-0.415,0.07
6.986111111111086,-0.41,0.06
6.988888888888823,-0.425,0.06
6.991666666666561,-0.42,0.07
6.994444444444525,-0.4,0.09
6.997222222222263,-0.39,0.09
7,-0.39,0.06
7.002777777777737,-0.385,0.06
7.005555555555475,-0.42,0.04
7.008333333333439,-0.41,0.06
7.011111111111177,-0.39,0.08
7.013888888888914,-0.375,0.07
7.0166666666666515,-0.385,0.065
7.019444444444389,-0.4,0.055
7.022222222222126,-0.415,0.05
7.025000000000091,-0.415,0.06
7.027777777777828,-0.405,0.07
7.030555555555566,-0.4,0.065
7.033333333333303,-0.385,0.075
7.036111111,-0.395,0.065
7.038888888888778,-0.415,0.05
7.0416666666667425,-0.415,0.065
7.044444444,-0.415,0.055
7.047222222222217,-0.4,0.065
7.0499999999999545,-0.415,0.055
7.052777777777692,-0.425,0.045
7.055555555555429,-0.44,0.045
7.058333333333394,-0.435,0.055
7.061111111111131,-0.42,0.06
7.063888888888869,-0.4,0.07
7.066666666666606,-0.4,0.055
7.069444444444571,-0.42,0.04
7.072222222222308,-0.425,0.04
7.0750000000000455,-0.445,0.045
7.077777777777783,-0.425,0.055
7.080555556,-0.395,0.065
7.0833333333332575,-0.415,0.06
7.086111111111222,-0.43,0.045
7.088888889,-0.455,0.03
7.091666666666697,-0.46,0.055
7.094444444444434,-0.455,0.06
7.097222222222172,-0.42,0.07
7.099999999999909,-0.42,0.05
7.102777777777874,-0.43,0.03
7.105555555555611,-0.445,0.04
7.1083333333333485,-0.45,0.04
7.111111111111086,-0.44,0.07
7.113888888888823,-0.42,0.05
7.116666666666561,-0.455,0.045
7.119444444444525,-0.47,0.025
7.122222222222263,-0.475,0.03
7.125,-0.465,0.04
7.127777777777737,-0.475,0.045
7.130555555555475,-0.47,0.05
7.133333333333439,-0.475,0.035
7.136111111111177,-0.475,0.035
7.138888888888914,-0.49,0.035
7.1416666666666515,-0.48,0.045
7.144444444444389,-0.45,0.065
7.147222222222126,-0.44,0.07
7.150000000000091,-0.47,0.045
7.152777777777828,-0.49,0.03
7.155555555555566,-0.5,0.02
7.158333333333303,-0.485,0.035
7.161111111,-0.49,0.045
7.163888888888778,-0.475,0.05
7.1666666666667425,-0.47,0.055
7.169444444,-0.505,0.04
7.172222222222217,-0.505,0.04
7.1749999999999545,-0.505,0.025
7.177777777777692,-0.49,0.05
7.180555555555429,-0.48,0.045
7.183333333333394,-0.47,0.035
7.186111111111131,-0.51,0.03
7.188888888888869,-0.545,0.03
7.191666666666606,-0.53,0.045
7.194444444444571,-0.52,0.05
7.197222222222308,-0.495,0.06
7.2000000000000455,-0.505,0.06
7.202777777777783,-0.52,0.03
7.205555556,-0.515,0.035
7.2083333333332575,-0.5,0.035
7.211111111111222,-0.495,0.055
7.213888889,-0.515,0.05
7.216666666666697,-0.51,0.05
7.219444444444434,-0.525,0.035
7.222222222222172,-0.525,0.035
7.224999999999909,-0.53,0.045
7.227777777777874,-0.52,0.055
7.230555555555611,-0.51,0.05
7.2333333333333485,-0.515,0.05
7.236111111111086,-0.54,0.035
7.238888888888823,-0.545,0.045
7.241666666666561,-0.555,0.045
7.244444444444525,-0.525,0.06
7.247222222222263,-0.505,0.055
7.25,-0.515,0.04
7.252777777777737,-0.545,0.035
7.255555555555475,-0.545,0.045
7.258333333333439,-0.54,0.06
7.261111111111177,-0.525,0.06
7.263888888888914,-0.53,0.055
7.2666666666666515,-0.55,0.035
7.269444444444389,-0.545,0.035
7.272222222222126,-0.565,0.025
7.275000000000091,-0.545,0.05
7.277777777777828,-0.555,0.075
7.280555555555566,-0.545,0.065
7.283333333333303,-0.53,0.05
7.286111111,-0.545,0.045
7.288888888888778,-0.555,0.025
7.2916666666667425,-0.535,0.05
7.294444444,-0.535,0.06
7.297222222222217,-0.515,0.065
7.2999999999999545,-0.52,0.05
7.302777777777692,-0.53,0.025
7.305555555555429,-0.56,0.02
7.308333333333394,-0.54,0.04
7.311111111111131,-0.53,0.045
7.313888888888869,-0.52,0.045
7.316666666666606,-0.525,0.035
7.319444444444571,-0.545,0.025
7.322222222222308,-0.55,0.025
7.3250000000000455,-0.545,0.045
7.327777777777783,-0.53,0.075
7.330555556,-0.525,0.07
7.3333333333332575,-0.545,0.055
7.336111111111222,-0.55,0.04
7.338888889,-0.57,0.04
7.341666666666697,-0.555,0.04
7.344444444444434,-0.535,0.06
7.347222222222172,-0.52,0.06
7.349999999999909,-0.53,0.05
7.352777777777874,-0.53,0.035
7.355555555555611,-0.55,0.03
7.3583333333333485,-0.54,0.05
7.361111111111086,-0.53,0.05
7.363888888888823,-0.51,0.065
7.366666666666561,-0.515,0.055
7.369444444444525,-0.54,0.04
7.372222222222263,-0.55,0.035
7.375,-0.53,0.05
7.377777777777737,-0.51,0.055
7.380555555555475,-0.505,0.065
7.383333333333439,-0.515,0.045
7.386111111111177,-0.54,0.04
7.388888888888914,-0.55,0.03
7.3916666666666515,-0.535,0.055
7.394444444444389,-0.525,0.065
7.397222222222126,-0.495,0.06
7.400000000000091,-0.5,0.045
7.402777777777828,-0.515,0.035
7.405555555555566,-0.53,0.03
7.408333333333303,-0.52,0.045
7.411111111,-0.505,0.055
7.413888888888778,-0.49,0.055
7.4166666666667425,-0.485,0.05
7.419444444,-0.49,0.04
7.422222222222217,-0.51,0.035
7.4249999999999545,-0.49,0.04
7.427777777777692,-0.49,0.065
7.430555555555429,-0.46,0.07
7.433333333333394,-0.47,0.06
7.436111111111131,-0.485,0.045
7.438888888888869,-0.505,0.045
7.441666666666606,-0.485,0.07
7.444444444444571,-0.47,0.08
7.447222222222308,-0.455,0.075
7.4500000000000455,-0.465,0.075
7.452777777777783,-0.465,0.065
7.455555556,-0.47,0.055
7.4583333333332575,-0.47,0.065
7.461111111111222,-0.435,0.085
7.463888889,-0.44,0.07
7.466666666666697,-0.45,0.055
7.469444444444434,-0.47,0.05
7.472222222222172,-0.485,0.045
7.474999999999909,-0.48,0.06
7.477777777777874,-0.465,0.075
7.480555555555611,-0.425,0.08
7.4833333333333485,-0.425,0.055
7.486111111111086,-0.435,0.045
7.488888888888823,-0.45,0.045
7.491666666666561,-0.45,0.055
7.494444444444525,-0.425,0.07
7.497222222222263,-0.405,0.08
7.5,-0.405,0.07
7.502777777777737,-0.42,0.06
7.505555555555475,-0.405,0.065
7.508333333333439,-0.39,0.07
7.511111111111177,-0.37,0.07
7.513888888888914,-0.375,0.08
7.5166666666666515,-0.38,0.07
7.519444444444389,-0.4,0.05
7.522222222222126,-0.4,0.06
7.525000000000091,-0.405,0.07
7.527777777777828,-0.375,0.065
7.530555555555566,-0.375,0.085
7.533333333333303,-0.355,0.09
7.536111111,-0.375,0.135
7.538888888888778,-0.375,0.155
7.5416666666667425,-0.375,0.145
7.544444444,-0.365,0.095
7.547222222222217,-0.365,-0.01
7.5499999999999545,-0.39,-0.155
7.552777777777692,-0.395,-0.37
7.555555555555429,-0.32,-0.555
7.558333333333394,-0.145,-0.695
7.561111111111131,0.13,-0.78
7.563888888888869,0.44,-0.795
7.566666666666606,0.74,-0.745
7.569444444444571,0.935,-0.66
7.572222222222308,0.995,-0.55
7.5750000000000455,0.87,-0.415
7.577777777777783,0.56,-0.28
7.580555556,0.215,-0.145
7.5833333333332575,-0.05,-0.035
7.586111111111222,-0.175,0.045
7.588888889,-0.2,0.085
7.591666666666697,-0.19,0.12
7.594444444444434,-0.175,0.14
7.597222222222172,-0.19,0.15
7.599999999999909,-0.23,0.16
7.602777777777874,-0.26,0.15
7.605555555555611,-0.3,0.13
7.6083333333333485,-0.3,0.14
7.611111111111086,-0.325,0.155
7.613888888888823,-0.335,0.16
7.616666666666561,-0.345,0.145
7.619444444444525,-0.345,0.135
7.622222222222263,-0.36,0.13
7.625,-0.345,0.14
7.627777777777737,-0.33,0.15
7.630555555555475,-0.31,0.15
7.633333333333439,-0.31,0.15
7.636111111111177,-0.31,0.135
7.638888888888914,-0.32,0.135
7.6416666666666515,-0.315,0.15
7.644444444444389,-0.3,0.17
7.647222222222126,-0.29,0.155
7.650000000000091,-0.295,0.16
7.652777777777828,-0.295,0.14
7.655555555555566,-0.305,0.145
7.658333333333303,-0.285,0.165
7.661111111,-0.27,0.165
7.663888888888778,-0.27,0.18
7.6666666666667425,-0.28,0.175
7.669444444,-0.265,0.155
7.672222222222217,-0.275,0.145
7.6749999999999545,-0.265,0.16
7.677777777777692,-0.255,0.185
7.680555555555429,-0.225,0.19
7.683333333333394,-0.225,0.19
7.686111111111131,-0.245,0.18
7.688888888888869,-0.245,0.18
7.691666666666606,-0.24,0.185
7.694444444444571,-0.21,0.2
7.697222222222308,-0.2,0.195
7.7000000000000455,-0.19,0.195
7.702777777777783,-0.21,0.19
7.705555556,-0.215,0.185
7.7083333333332575,-0.195,0.195
7.711111111111222,-0.195,0.205
7.713888889,-0.18,0.21
7.716666666666697,-0.175,0.2
7.719444444444434,-0.175,0.185
7.722222222222172,-0.2,0.19
7.724999999999909,-0.2,0.205
7.727777777777874,-0.195,0.22
7.730555555555611,-0.19,0.22
7.7333333333333485,-0.165,0.21
7.736111111111086,-0.185,0.195
7.738888888888823,-0.195,0.195
7.741666666666561,-0.2,0.215
7.744444444444525,-0.19,0.24
7.747222222222263,-0.155,0.235
7.75,-0.16,0.225
7.752777777777737,-0.165,0.2
7.755555555555475,-0.165,0.21
7.758333333333439,-0.165,0.22
7.761111111111177,-0.145,0.235
7.763888888888914,-0.135,0.245
7.7666666666666515,-0.125,0.235
7.769444444444389,-0.14,0.215
7.772222222222126,-0.13,0.21
7.775000000000091,-0.125,0.21
7.777777777777828,-0.105,0.24
7.780555555555566,-0.1,0.23
7.783333333333303,-0.13,0.215
7.786111111,-0.145,0.2
7.788888888888778,-0.145,0.205
7.7916666666667425,-0.155,0.21
7.794444444,-0.145,0.24
7.797222222222217,-0.125,0.22
7.7999999999999545,-0.125,0.205
7.802777777777692,-0.14,0.195
7.805555555555429,-0.14,0.2
7.808333333333394,-0.15,0.2
7.811111111111131,-0.14,0.22
7.813888888888869,-0.135,0.22
7.816666666666606,-0.13,0.2
7.819444444444571,-0.155,0.195
7.822222222222308,-0.165,0.18
7.8250000000000455,-0.16,0.195
7.827777777777783,-0.175,0.2
7.830555556,-0.16,0.205
7.8333333333332575,-0.16,0.195
7.836111111111222,-0.165,0.18
7.838888889,-0.175,0.17
7.841666666666697,-0.2,0.185
7.844444444444434,-0.195,0.19
7.847222222222172,-0.17,0.19
7.849999999999909,-0.19,0.185
7.852777777777874,-0.2,0.175
7.855555555555611,-0.225,0.17
7.8583333333333485,-0.2,0.18
7.861111111111086,-0.19,0.195
7.863888888888823,-0.175,0.195
7.866666666666561,-0.185,0.18
7.869444444444525,-0.205,0.17
7.872222222222263,-0.22,0.17
7.875,-0.215,0.175
7.877777777777737,-0.205,0.185
7.880555555555475,-0.215,0.19
7.883333333333439,-0.2,0.165
7.886111111111177,-0.21,0.165
7.888888888888914,-0.245,0.15
7.8916666666666515,-0.23,0.155
7.894444444444389,-0.22,0.165
7.897222222222126,-0.22,0.155
7.900000000000091,-0.21,0.145
7.902777777777828,-0.215,0.125
7.905555555555566,-0.215,0.145
7.908333333333303,-0.205,0.15
7.911111111,-0.18,0.165
7.913888888888778,-0.155,0.165
7.9166666666667425,-0.145,0.155
7.919444444,-0.14,0.145
7.922222222222217,-0.14,0.16
7.9249999999999545,-0.12,0.17
7.927777777777692,-0.085,0.18
7.930555555555429,-0.025,0.155
7.933333333333394,-0.01,0.145
7.936111111111131,-0.015,0.12
7.938888888888869,-0.035,0.125
7.941666666666606,-0.055,0.135
7.944444444444571,-0.07,0.165
7.947222222222308,-0.07,0.19
7.9500000000000455,-0.105,0.18
7.952777777777783,-0.11,0.18
7.955555556,-0.115,0.19
7.9583333333332575,-0.095,0.21
7.961111111111222,-0.055,0.225
7.963888889,-0.015,0.215
7.966666666666697,-0.02,0.19
7.969444444444434,-0.03,0.16
7.972222222222172,-0.05,0.135
7.974999999999909,-0.065,0.14
7.977777777777874,-0.085,0.135
7.980555555555611,-0.085,0.12
7.9833333333333485,-0.11,0.1
7.986111111111086,-0.115,0.09
7.988888888888823,-0.13,0.085
7.991666666666561,-0.135,0.08
7.994444444444525,-0.105,0.105
7.997222222222263,-0.1,0.105
8,-0.11,0.095
8.002777777777737,-0.105,0.085
8.005555555555475,-0.115,0.08
8.008333333,-0.115,0.085
8.011111111111177,-0.11,0.105
8.013888888888914,-0.08,0.11
8.016666666666652,-0.09,0.1
8.019444444444389,-0.08,0.08
8.022222222222126,-0.11,0.095
8.025000000000091,-0.125,0.1
8.027777777777828,-0.11,0.11
8.030555555555566,-0.085,0.125
8.033333333333303,-0.08,0.105
8.036111111,-0.07,0.11
8.038888888888778,-0.08,0.115
8.041666666666742,-0.075,0.16
8.044444444,-0.055,0.225
8.047222222222217,-0.055,0.23
8.049999999999955,-0.065,0.22
8.052777777777692,-0.08,0.155
8.055555556,-0.115,0.04
8.058333333333394,-0.13,-0.11
8.061111111111131,-0.12,-0.305
8.063888888888869,-0.075,-0.52
8.066666666666606,0.05,-0.74
8.069444444,0.245,-0.895
8.072222222222308,0.48,-0.95
8.075000000000045,0.715,-0.9
8.077777777777783,0.905,-0.8
8.080555556,0.965,-0.675
8.083333333333258,0.88,-0.53
8.086111111111222,0.595,-0.395
8.088888889,0.265,-0.23
8.091666666666697,0.025,-0.075
8.094444444444434,-0.06,0.08
8.097222222222172,-0.09,0.155
8.099999999999909,-0.085,0.205
8.102777777777874,-0.045,0.21
8.105555555555611,-0.005,0.205
8.108333333333348,0.01,0.22
8.111111111111086,0.015,0.215
8.113888888888823,-0.03,0.225
8.116666667,-0.055,0.215
8.119444444444525,-0.07,0.195
8.122222222222263,-0.06,0.19
8.125,-0.05,0.205
8.127777777777737,-0.04,0.215
8.130555555555475,-0.035,0.205
8.133333333,-0.035,0.2
8.136111111111177,-0.045,0.18
8.138888888888914,-0.055,0.19
8.141666666666652,-0.05,0.195
8.144444444444389,-0.015,0.2
8.147222222222126,-0.01,0.21
8.150000000000091,-0.01,0.205
8.152777777777828,-0.02,0.185
8.155555555555566,-0.04,0.18
8.158333333333303,-0.025,0.2
8.161111111,-0.005,0.205
8.163888888888778,0.01,0.21
8.166666666666742,0.03,0.215
8.169444444,0.005,0.21
8.172222222222217,-0.005,0.21
8.174999999999955,-0.005,0.2
8.177777777777692,-0.015,0.225
8.180555556,-0.005,0.22
8.183333333333394,0,0.22
8.186111111111131,-0.01,0.205
8.188888888888869,-0.02,0.2
8.191666666666606,-0.03,0.22
8.194444444,0,0.23
8.197222222222308,0.015,0.21
8.200000000000045,0.005,0.2
8.202777777777783,0.005,0.195
8.205555556,-0.005,0.21
8.208333333333258,-0.005,0.22
8.211111111111222,-0.01,0.24
8.213888889,-0.01,0.235
8.216666666666697,0.005,0.225
8.219444444444434,-0.005,0.205
8.222222222222172,0,0.21
8.224999999999909,0.005,0.22
8.227777777777874,0.01,0.245
8.230555555555611,0.01,0.24
8.233333333333348,0,0.225
8.236111111111086,-0.02,0.205
8.238888888888823,-0.02,0.215
8.241666667,-0.015,0.23
8.244444444444525,0.01,0.225
8.247222222222263,0.02,0.235
8.25,0.01,0.215
8.252777777777737,-0.01,0.21
8.255555555555475,-0.03,0.22
8.258333333,-0.01,0.225
8.261111111111177,0.005,0.23
8.263888888888914,0.02,0.23
8.266666666666652,0.03,0.22
8.269444444444389,0.015,0.21
8.272222222222126,-0.005,0.23
8.275000000000091,-0.03,0.225
8.277777777777828,-0.04,0.24
8.280555555555566,-0.04,0.23
8.283333333333303,-0.05,0.22
8.286111111,-0.06,0.21
8.288888888888778,-0.06,0.205
8.291666666666742,-0.07,0.215
8.294444444,-0.055,0.22
8.297222222222217,-0.06,0.23
8.299999999999955,-0.06,0.225
8.302777777777692,-0.095,0.195
8.305555556,-0.105,0.205
8.308333333333394,-0.115,0.2
8.311111111111131,-0.125,0.215
8.313888888888869,-0.105,0.205
8.316666666666606,-0.105,0.19
8.319444444,-0.12,0.18
8.322222222222308,-0.115,0.175
8.325000000000045,-0.12,0.19
8.327777777777783,-0.125,0.2
8.330555556,-0.115,0.19
8.333333333333258,-0.125,0.18
8.336111111111222,-0.13,0.175
8.338888889,-0.13,0.175
8.341666666666697,-0.115,0.17
8.344444444444434,-0.115,0.2
8.347222222222172,-0.105,0.19
8.349999999999909,-0.125,0.165
8.352777777777874,-0.125,0.165
8.355555555555611,-0.14,0.155
8.358333333333348,-0.135,0.185
8.361111111111086,-0.115,0.19
8.363888888888823,-0.105,0.185
8.366666667,-0.12,0.185
8.369444444444525,-0.14,0.17
8.372222222222263,-0.15,0.17
8.375,-0.135,0.175
8.377777777777737,-0.125,0.18
8.380555555555475,-0.105,0.18
8.383333333,-0.115,0.16
8.386111111111177,-0.12,0.165
8.388888888888914,-0.145,0.16
8.391666666666652,-0.13,0.18
8.394444444444389,-0.1,0.185
8.397222222222126,-0.085,0.175
8.400000000000091,-0.075,0.17
8.402777777777828,-0.105,0.165
8.405555555555566,-0.135,0.16
8.408333333333303,-0.13,0.18
8.411111111,-0.105,0.185
8.413888888888778,-0.115,0.18
8.416666666666742,-0.125,0.175
8.419444444,-0.14,0.16
8.422222222222217,-0.13,0.15
8.424999999999955,-0.125,0.155
8.427777777777692,-0.105,0.17
8.430555556,-0.11,0.175
8.433333333333394,-0.1,0.17
8.436111111111131,-0.12,0.16
8.438888888888869,-0.145,0.15
8.441666666666606,-0.13,0.155
8.444444444,-0.11,0.16
8.447222222222308,-0.115,0.155
8.450000000000045,-0.105,0.155
8.452777777777783,-0.125,0.14
8.455555556,-0.115,0.14
8.458333333333258,-0.09,0.155
8.461111111111222,-0.1,0.155
8.463888889,-0.085,0.16
8.466666666666697,-0.085,0.145
8.469444444444434,-0.105,0.14
8.472222222222172,-0.115,0.135
8.474999999999909,-0.105,0.145
8.477777777777874,-0.105,0.165
8.480555555555611,-0.095,0.165
8.483333333333348,-0.08,0.155
8.486111111111086,-0.095,0.15
8.488888888888823,-0.115,0.145
8.491666667,-0.1,0.155
8.494444444444525,-0.085,0.175
8.497222222222263,-0.065,0.15
8.5,-0.075,0.16
8.502777777777737,-0.11,0.14
8.505555555555475,-0.13,0.145
8.508333333,-0.135,0.16
8.511111111111177,-0.095,0.16
8.513888888888914,-0.09,0.17
8.516666666666652,-0.095,0.155
8.519444444444389,-0.11,0.13
8.522222222222126,-0.1,0.13
8.525000000000091,-0.075,0.155
8.527777777777828,-0.07,0.17
8.530555555555566,-0.075,0.165
8.533333333333303,-0.085,0.16
8.536111111,-0.105,0.135
8.538888888888778,-0.1,0.145
8.541666666666742,-0.09,0.14
8.544444444,-0.055,0.155
8.547222222222217,-0.035,0.16
8.549999999999955,-0.04,0.15
8.552777777777692,-0.065,0.135
8.555555556,-0.1,0.13
8.558333333333394,-0.105,0.155
8.561111111111131,-0.105,0.155
8.563888888888869,-0.1,0.15
8.566666666666606,-0.095,0.14
8.569444444,-0.095,0.13
8.572222222222308,-0.095,0.135
8.575000000000045,-0.095,0.15
8.577777777777783,-0.085,0.16
8.580555556,-0.06,0.145
8.583333333333258,-0.06,0.14
8.586111111111222,-0.08,0.13
8.588888889,-0.07,0.14
8.591666666666697,-0.1,0.145
8.594444444444434,-0.095,0.15
8.597222222222172,-0.07,0.15
8.599999999999909,-0.065,0.15
8.602777777777874,-0.085,0.13
8.605555555555611,-0.1,0.135
8.608333333333348,-0.09,0.15
8.611111111111086,-0.08,0.16
8.613888888888823,-0.07,0.155
8.616666667,-0.065,0.14
8.619444444444525,-0.095,0.13
8.622222222222263,-0.1,0.125
8.625,-0.1,0.15
8.627777777777737,-0.08,0.17
8.630555555555475,-0.065,0.17
8.633333333,-0.085,0.155
8.636111111111177,-0.085,0.13
8.638888888888914,-0.1,0.13
8.641666666666652,-0.09,0.145
8.644444444444389,-0.085,0.155
8.647222222222126,-0.065,0.16
8.650000000000091,-0.06,0.155
8.652777777777828,-0.06,0.14
8.655555555555566,-0.1,0.14
8.658333333333303,-0.105,0.15
8.661111111,-0.09,0.15
8.663888888888778,-0.08,0.155
8.666666666666742,-0.06,0.14
8.669444444,-0.06,0.135
8.672222222222217,-0.065,0.13
8.674999999999955,-0.05,0.145
8.677777777777692,-0.07,0.16
8.680555556,-0.07,0.15
8.683333333333394,-0.08,0.155
8.686111111111131,-0.105,0.14
8.688888888888869,-0.1,0.14
8.691666666666606,-0.095,0.145
8.694444444,-0.08,0.165
8.697222222222308,-0.065,0.17
8.700000000000045,-0.075,0.155
8.702777777777783,-0.095,0.145
8.705555556,-0.1,0.14
8.708333333333258,-0.1,0.155
8.711111111111222,-0.1,0.155
8.713888889,-0.08,0.16
8.716666666666697,-0.08,0.16
8.719444444444434,-0.09,0.15
8.722222222222172,-0.095,0.145
8.724999999999909,-0.1,0.155
8.727777777777874,-0.095,0.16
8.730555555555611,-0.095,0.165
8.733333333333348,-0.075,0.16
8.736111111111086,-0.09,0.155
8.738888888888823,-0.11,0.155
8.741666667,-0.1,0.145
8.744444444444525,-0.075,0.17
8.747222222222263,-0.065,0.175
8.75,-0.075,0.165
8.752777777777737,-0.08,0.145
8.755555555555475,-0.095,0.15
8.758333333,-0.075,0.16
8.761111111111177,-0.055,0.18
8.763888888888914,-0.05,0.18
8.766666666666652,-0.055,0.16
8.769444444444389,-0.08,0.15
8.772222222222126,-0.105,0.145
8.775000000000091,-0.11,0.155
8.777777777777828,-0.1,0.175
8.780555555555566,-0.085,0.17
8.783333333333303,-0.09,0.16
8.786111111,-0.085,0.145
8.788888888888778,-0.085,0.155
8.791666666666742,-0.085,0.16
8.794444444,-0.085,0.17
8.797222222222217,-0.075,0.175
8.799999999999955,-0.075,0.155
8.802777777777692,-0.095,0.15
8.805555556,-0.1,0.155
8.808333333333394,-0.095,0.16
8.811111111111131,-0.08,0.175
8.813888888888869,-0.065,0.17
8.816666666666606,-0.065,0.155
8.819444444,-0.08,0.15
8.822222222222308,-0.095,0.145
8.825000000000045,-0.085,0.17
8.827777777777783,-0.065,0.175
8.830555556,-0.07,0.18
8.833333333333258,-0.065,0.18
8.836111111111222,-0.085,0.165
8.838888889,-0.105,0.145
8.841666666666697,-0.11,0.165
8.844444444444434,-0.09,0.18
8.847222222222172,-0.08,0.185
8.849999999999909,-0.07,0.175
8.852777777777874,-0.07,0.155
8.855555555555611,-0.085,0.15
8.858333333333348,-0.085,0.16
8.861111111111086,-0.09,0.17
8.863888888888823,-0.06,0.175
8.866666667,-0.065,0.17
8.869444444444525,-0.08,0.16
8.872222222222263,-0.08,0.16
8.875,-0.09,0.175
8.877777777777737,-0.075,0.175
8.880555555555475,-0.08,0.185
8.883333333,-0.1,0.16
8.886111111111177,-0.11,0.155
8.888888888888914,-0.12,0.15
8.891666666666652,-0.105,0.165
8.894444444444389,-0.085,0.185
8.897222222222126,-0.08,0.185
8.900000000000091,-0.075,0.17
8.902777777777828,-0.1,0.15
8.905555555555566,-0.125,0.15
8.908333333333303,-0.11,0.155
8.911111111,-0.1,0.165
8.913888888888778,-0.085,0.18
8.916666666666742,-0.08,0.165
8.919444444,-0.085,0.155
8.922222222222217,-0.09,0.165
8.924999999999955,-0.08,0.175
8.927777777777692,-0.08,0.18
8.930555556,-0.065,0.165
8.933333333333394,-0.08,0.16
8.936111111111131,-0.09,0.155
8.938888888888869,-0.09,0.16
8.941666666666606,-0.09,0.17
8.944444444,-0.075,0.175
8.947222222222308,-0.075,0.18
8.950000000000045,-0.075,0.165
8.952777777777783,-0.07,0.155
8.955555556,-0.08,0.16
8.958333333333258,-0.08,0.165
8.961111111111222,-0.08,0.18
8.963888889,-0.07,0.185
8.966666666666697,-0.08,0.18
8.969444444444434,-0.08,0.16
8.972222222222172,-0.095,0.155
8.974999999999909,-0.09,0.18
8.977777777777874,-0.065,0.185
8.980555555555611,-0.055,0.185
8.983333333333348,-0.04,0.16
8.986111111111086,-0.04,0.16
8.988888888888823,-0.065,0.16
8.991666667,-0.02,0.18
8.994444444444525,-0.01,0.185
8.997222222222263,-0.005,0.165
9,-0.04,0.14
9.002777777777737,-0.095,0.14
9.005555555555475,-0.125,0.13
9.008333333,-0.12,0.15
9.011111111111177,-0.105,0.17
9.013888888888914,-0.075,0.15
9.016666666666652,-0.055,0.14
9.019444444444389,-0.055,0.11
9.022222222222126,-0.07,0.1
9.025000000000091,-0.04,0.09
9.027777777777828,-0.015,0.105
9.030555555555566,0.005,0.095
9.033333333333303,-0.005,0.075
9.036111111,-0.03,0.065
9.038888888888778,-0.03,0.07
9.041666666666742,-0.015,0.075
9.044444444,0.025,0.09
9.047222222222217,0.025,0.1
9.049999999999955,0.04,0.1
9.052777777777692,0.045,0.09
9.055555556,0.03,0.115
9.058333333333394,0.03,0.135
9.061111111111131,0.02,0.155
9.063888888888869,0,0.19
9.066666666666606,-0.025,0.21
9.069444444,-0.025,0.25
9.072222222222308,-0.035,0.33
9.075000000000045,-0.045,0.365
9.077777777777783,-0.045,0.375
9.080555556,-0.05,0.33
9.083333333333258,-0.09,0.24
9.086111111111222,-0.125,0.06
9.088888889,-0.15,-0.155
9.091666666666697,-0.08,-0.385
9.094444444444434,0.065,-0.585
9.097222222222172,0.285,-0.715
9.099999999999909,0.5,-0.8
9.102777777777874,0.705,-0.815
9.105555555555611,0.89,-0.755
9.108333333333348,1.045,-0.625
9.111111111111086,1.1,-0.47
9.113888888888823,0.99,-0.315
9.116666667,0.67,-0.16
9.119444444444525,0.295,-0.015
9.122222222222263,0.05,0.13
9.125,-0.065,0.21
9.127777777777737,-0.06,0.26
9.130555555555475,-0.06,0.27
9.133333333,-0.065,0.255
9.136111111111177,-0.1,0.245
9.138888888888914,-0.14,0.255
9.141666666666652,-0.155,0.26
9.144444444444389,-0.135,0.275
9.147222222222126,-0.125,0.28
9.150000000000091,-0.135,0.275
9.152777777777828,-0.17,0.255
9.155555555555566,-0.185,0.25
9.158333333333303,-0.185,0.265
9.161111111,-0.18,0.28
9.163888888888778,-0.165,0.275
9.166666666666742,-0.155,0.28
9.169444444,-0.17,0.255
9.172222222222217,-0.175,0.26
9.174999999999955,-0.155,0.265
9.177777777777692,-0.125,0.28
9.180555556,-0.12,0.28
9.183333333333394,-0.125,0.275
9.186111111111131,-0.155,0.265
9.188888888888869,-0.18,0.265
9.191666666666606,-0.175,0.275
9.194444444,-0.175,0.285
9.197222222222308,-0.165,0.29
9.200000000000045,-0.18,0.28
9.202777777777783,-0.19,0.255
9.205555556,-0.21,0.27
9.208333333333258,-0.205,0.275
9.211111111111222,-0.205,0.29
9.213888889,-0.19,0.29
9.216666666666697,-0.205,0.285
9.219444444444434,-0.21,0.28
9.222222222222172,-0.215,0.27
9.224999999999909,-0.2,0.29
9.227777777777874,-0.175,0.29
9.230555555555611,-0.165,0.3
9.233333333333348,-0.16,0.3
9.236111111111086,-0.185,0.29
9.238888888888823,-0.215,0.29
9.241666667,-0.225,0.29
9.244444444444525,-0.24,0.31
9.247222222222263,-0.215,0.295
9.25,-0.23,0.29
9.252777777777737,-0.22,0.275
9.255555555555475,-0.245,0.27
9.258333333,-0.235,0.285
9.261111111111177,-0.225,0.31
9.263888888888914,-0.195,0.305
9.266666666666652,-0.19,0.3
9.269444444444389,-0.205,0.29
9.272222222222126,-0.22,0.285
9.275000000000091,-0.225,0.275
9.277777777777828,-0.225,0.3
9.280555555555566,-0.235,0.29
9.283333333333303,-0.23,0.29
9.286111111,-0.24,0.265
9.288888888888778,-0.255,0.265
9.291666666666742,-0.235,0.285
9.294444444,-0.225,0.29
9.297222222222217,-0.215,0.305
9.299999999999955,-0.205,0.285
9.302777777777692,-0.225,0.275
9.305555556,-0.24,0.275
9.308333333333394,-0.25,0.3
9.311111111111131,-0.235,0.31
9.313888888888869,-0.225,0.3
9.316666666666606,-0.235,0.29
9.319444444,-0.255,0.285
9.322222222222308,-0.27,0.275
9.325000000000045,-0.265,0.285
9.327777777777783,-0.26,0.305
9.330555556,-0.245,0.295
9.333333333333258,-0.255,0.285
9.336111111111222,-0.255,0.28
9.338888889,-0.27,0.275
9.341666666666697,-0.27,0.28
9.344444444444434,-0.27,0.27
9.347222222222172,-0.26,0.28
9.349999999999909,-0.28,0.265
9.352777777777874,-0.27,0.25
9.355555555555611,-0.26,0.26
9.358333333333348,-0.265,0.265
9.361111111111086,-0.28,0.27
9.363888888888823,-0.28,0.265
9.366666667,-0.29,0.245
9.369444444444525,-0.305,0.23
9.372222222222263,-0.32,0.235
9.375,-0.325,0.245
9.377777777777737,-0.33,0.25
9.380555555555475,-0.31,0.235
9.383333333,-0.315,0.205
9.386111111111177,-0.335,0.205
9.388888888888914,-0.345,0.2
9.391666666666652,-0.36,0.2
9.394444444444389,-0.38,0.21
9.397222222222126,-0.37,0.205
9.400000000000091,-0.375,0.195
9.402777777777828,-0.375,0.185
9.405555555555566,-0.375,0.205
9.408333333333303,-0.365,0.215
9.411111111,-0.35,0.235
9.413888888888778,-0.34,0.23
9.416666666666742,-0.34,0.215
9.419444444,-0.35,0.2
9.422222222222217,-0.345,0.19
9.424999999999955,-0.295,0.19
9.427777777777692,-0.265,0.185
9.430555556,-0.28,0.18
9.433333333333394,-0.305,0.185
9.436111111111131,-0.365,0.18
9.438888888888869,-0.42,0.2
9.441666666666606,-0.41,0.235
9.444444444,-0.4,0.245
9.447222222222308,-0.4,0.255
9.450000000000045,-0.39,0.27
9.452777777777783,-0.415,0.255
9.455555556,-0.44,0.295
9.458333333333258,-0.45,0.315
9.461111111111222,-0.435,0.31
9.463888889,-0.41,0.29
9.466666666666697,-0.395,0.26
9.469444444444434,-0.41,0.22
9.472222222222172,-0.425,0.205
9.474999999999909,-0.455,0.205
9.477777777777874,-0.46,0.21
9.480555555555611,-0.455,0.205
9.483333333333348,-0.45,0.175
9.486111111111086,-0.465,0.155
9.488888888888823,-0.475,0.15
9.491666667,-0.46,0.17
9.494444444444525,-0.465,0.18
9.497222222222263,-0.47,0.175
9.5,-0.455,0.17
9.502777777777737,-0.455,0.16
9.505555555555475,-0.465,0.175
9.508333333,-0.47,0.175
9.511111111111177,-0.47,0.19
9.513888888888914,-0.445,0.19
9.516666666666652,-0.445,0.175
9.519444444444389,-0.47,0.15
9.522222222222126,-0.475,0.15
9.525000000000091,-0.47,0.16
9.527777777777828,-0.43,0.185
9.530555555555566,-0.41,0.185
9.533333333333303,-0.41,0.155
9.536111111,-0.43,0.145
9.538888888888778,-0.44,0.15
9.541666666666742,-0.44,0.155
9.544444444,-0.425,0.165
9.547222222222217,-0.395,0.17
9.549999999999955,-0.4,0.16
9.552777777777692,-0.425,0.135
9.555555556,-0.43,0.155
9.558333333333394,-0.46,0.155
9.561111111111131,-0.45,0.18
9.563888888888869,-0.42,0.175
9.566666666666606,-0.44,0.19
9.569444444,-0.425,0.225
9.572222222222308,-0.43,0.255
9.575000000000045,-0.44,0.245
9.577777777777783,-0.435,0.175
9.580555556,-0.47,0.06
9.583333333333258,-0.535,-0.13
9.586111111111222,-0.6,-0.335
9.588888889,-0.61,-0.53
9.591666666666697,-0.5,-0.685
9.594444444444434,-0.315,-0.795
9.597222222222172,-0.075,-0.835
9.599999999999909,0.175,-0.795
9.602777777777874,0.415,-0.695
9.605555555555611,0.565,-0.545
9.608333333333348,0.535,-0.365
9.611111111111086,0.32,-0.205
9.613888888888823,0.015,-0.045
9.616666667,-0.255,0.09
9.619444444444525,-0.405,0.185
9.622222222222263,-0.465,0.245
9.625,-0.445,0.27
9.627777777777737,-0.405,0.28
9.630555555555475,-0.36,0.265
9.633333333,-0.35,0.25
9.636111111111177,-0.365,0.225
9.638888888888914,-0.39,0.225
9.641666666666652,-0.395,0.24
9.644444444444389,-0.395,0.245
9.647222222222126,-0.39,0.24
9.650000000000091,-0.39,0.22
9.652777777777828,-0.395,0.205
9.655555555555566,-0.405,0.21
9.658333333333303,-0.405,0.225
9.661111111,-0.39,0.235
9.663888888888778,-0.4,0.245
9.666666666666742,-0.4,0.22
9.669444444,-0.41,0.22
9.672222222222217,-0.445,0.205
9.674999999999955,-0.455,0.215
9.677777777777692,-0.445,0.225
9.680555556,-0.43,0.24
9.683333333333394,-0.435,0.24
9.686111111111131,-0.445,0.21
9.688888888888869,-0.45,0.215
9.691666666666606,-0.44,0.22
9.694444444,-0.42,0.24
9.697222222222308,-0.41,0.23
9.700000000000045,-0.415,0.225
9.702777777777783,-0.445,0.205
9.705555556,-0.465,0.215
9.708333333333258,-0.47,0.225
9.711111111111222,-0.46,0.245
9.713888889,-0.43,0.245
9.716666666666697,-0.435,0.23
9.719444444444434,-0.42,0.225
9.722222222222172,-0.425,0.225
9.724999999999909,-0.43,0.235
9.727777777777874,-0.44,0.255
9.730555555555611,-0.435,0.245
9.733333333333348,-0.45,0.23
9.736111111111086,-0.455,0.22
9.738888888888823,-0.485,0.23
9.741666667,-0.495,0.235
9.744444444444525,-0.465,0.245
9.747222222222263,-0.46,0.24
9.75,-0.46,0.22
9.752777777777737,-0.465,0.215
9.755555555555475,-0.47,0.205
9.758333333,-0.47,0.225
9.761111111111177,-0.465,0.24
9.763888888888914,-0.47,0.24
9.766666666666652,-0.47,0.23
9.769444444444389,-0.48,0.21
9.772222222222126,-0.49,0.21
9.775000000000091,-0.475,0.23
9.777777777777828,-0.47,0.25
9.780555555555566,-0.435,0.23
9.783333333333303,-0.455,0.22
9.786111111,-0.48,0.21
9.788888888888778,-0.49,0.22
9.791666666666742,-0.485,0.23
9.794444444,-0.48,0.24
9.797222222222217,-0.485,0.23
9.799999999999955,-0.505,0.21
9.802777777777692,-0.505,0.19
9.805555556,-0.5,0.195
9.808333333333394,-0.495,0.21
9.811111111111131,-0.47,0.245
9.813888888888869,-0.495,0.235
9.816666666666606,-0.515,0.225
9.819444444,-0.535,0.205
9.822222222222308,-0.56,0.205
9.825000000000045,-0.575,0.195
9.827777777777783,-0.555,0.215
9.830555556,-0.525,0.205
9.833333333333258,-0.535,0.2
9.836111111111222,-0.545,0.18
9.838888889,-0.565,0.19
9.841666666666697,-0.58,0.21
9.844444444444434,-0.595,0.215
9.847222222222172,-0.585,0.21
9.849999999999909,-0.605,0.195
9.852777777777874,-0.62,0.175
9.855555555555611,-0.625,0.185
9.858333333333348,-0.635,0.195
9.861111111111086,-0.635,0.205
9.863888888888823,-0.615,0.205
9.866666667,-0.61,0.195
9.869444444444525,-0.61,0.185
9.872222222222263,-0.625,0.18
9.875,-0.62,0.195
9.877777777777737,-0.615,0.215
9.880555555555475,-0.605,0.215
9.883333333,-0.625,0.2
9.886111111111177,-0.625,0.195
9.888888888888914,-0.625,0.205
9.891666666666652,-0.61,0.2
9.894444444444389,-0.6,0.205
9.897222222222126,-0.595,0.21
9.900000000000091,-0.595,0.215
9.902777777777828,-0.6,0.17
9.905555555555566,-0.595,0.18
9.908333333333303,-0.61,0.2
9.911111111,-0.6,0.21
9.913888888888778,-0.6,0.2
9.916666666666742,-0.59,0.19
9.919444444,-0.585,0.18
9.922222222222217,-0.57,0.175
9.924999999999955,-0.555,0.175
9.927777777777692,-0.565,0.195
9.930555556,-0.56,0.185
9.933333333333394,-0.595,0.17
9.936111111111131,-0.58,0.18
9.938888888888869,-0.585,0.165
9.941666666666606,-0.575,0.175
9.944444444,-0.54,0.185
9.947222222222308,-0.525,0.17
9.950000000000045,-0.525,0.165
9.952777777777783,-0.54,0.165
9.955555556,-0.535,0.165
9.958333333333258,-0.52,0.17
9.961111111111222,-0.51,0.19
9.963888889,-0.51,0.18
9.966666666666697,-0.52,0.17
9.969444444444434,-0.54,0.16
9.972222222222172,-0.575,0.16
9.974999999999909,-0.555,0.165
9.977777777777874,-0.54,0.185
9.980555555555611,-0.53,0.17
9.983333333333348,-0.525,0.175
9.986111111111086,-0.54,0.155
9.988888888888823,-0.545,0.155
9.991666667,-0.54,0.165
9.994444444444525,-0.545,0.17
9.997222222222263,-0.525,0.175
10,-0.51,0.165
10.002777777777737,-0.52,0.16
10.005555555555475,-0.52,0.155
10.00833333333344,-0.52,0.165
10.011111111111177,-0.495,0.175
10.013888888888914,-0.47,0.175
10.016666666666652,-0.465,0.16
10.019444444444389,-0.475,0.14
10.022222222222126,-0.49,0.15
10.025000000000091,-0.485,0.155
10.027777777777828,-0.465,0.175
10.030555555555566,-0.46,0.18
10.033333333333303,-0.47,0.16
10.03611111111104,-0.485,0.16
10.038888888888778,-0.49,0.16
10.041666666666742,-0.49,0.15
10.04444444444448,-0.495,0.175
10.047222222222217,-0.485,0.17
10.049999999999955,-0.485,0.16
10.052777777777692,-0.505,0.16
10.05555555555543,-0.5,0.165
10.058333333333394,-0.47,0.175
10.061111111111131,-0.44,0.185
10.063888888888869,-0.435,0.185
10.066666666666606,-0.455,0.17
10.06944444444457,-0.465,0.16
10.072222222222308,-0.475,0.15
10.075000000000045,-0.465,0.165
10.077777777777783,-0.445,0.18
10.08055555555552,-0.43,0.185
10.083333333333258,-0.45,0.17
10.086111111111222,-0.44,0.16
10.08888888888896,-0.47,0.16
10.091666666666697,-0.45,0.17
10.094444444444434,-0.435,0.18
10.097222222222172,-0.415,0.185
10.099999999999909,-0.425,0.16
10.102777777777874,-0.43,0.15
10.105555555555611,-0.43,0.16
10.108333333333348,-0.42,0.165
10.111111111111086,-0.42,0.175
10.113888888888823,-0.4,0.175
10.11666666666656,-0.39,0.15
10.119444444444525,-0.405,0.16
10.122222222222263,-0.43,0.155
10.125,-0.43,0.165
10.127777777777737,-0.415,0.185
10.130555555555475,-0.42,0.19
10.13333333333344,-0.41,0.18
10.136111111111177,-0.41,0.145
10.138888888888914,-0.415,0.155
10.141666666666652,-0.405,0.165
10.144444444444389,-0.4,0.175
10.147222222222126,-0.375,0.175
10.150000000000091,-0.385,0.185
10.152777777777828,-0.385,0.15
10.155555555555566,-0.405,0.16
10.158333333333303,-0.39,0.175
10.16111111111104,-0.37,0.175
10.163888888888778,-0.345,0.175
10.166666666666742,-0.355,0.17
10.16944444444448,-0.365,0.165
10.172222222222217,-0.385,0.145
10.174999999999955,-0.38,0.17
10.177777777777692,-0.375,0.175
10.18055555555543,-0.355,0.185
10.183333333333394,-0.345,0.16
10.186111111111131,-0.355,0.155
10.188888888888869,-0.35,0.155
10.191666666666606,-0.35,0.165
10.19444444444457,-0.345,0.18
10.197222222222308,-0.33,0.17
10.200000000000045,-0.345,0.175
10.202777777777783,-0.36,0.17
10.20555555555552,-0.375,0.16
10.208333333333258,-0.35,0.165
10.211111111111222,-0.335,0.17
10.21388888888896,-0.325,0.17
10.216666666666697,-0.325,0.16
10.219444444444434,-0.33,0.155
10.222222222222172,-0.335,0.16
10.224999999999909,-0.32,0.17
10.227777777777874,-0.31,0.185
10.230555555555611,-0.325,0.18
10.233333333333348,-0.33,0.165
10.236111111111086,-0.335,0.155
10.238888888888823,-0.325,0.16
10.24166666666656,-0.315,0.175
10.244444444444525,-0.31,0.19
10.247222222222263,-0.315,0.175
10.25,-0.33,0.165
10.252777777777737,-0.345,0.155
10.255555555555475,-0.35,0.15
10.25833333333344,-0.315,0.17
10.261111111111177,-0.295,0.175
10.263888888888914,-0.265,0.17
10.266666666666652,-0.255,0.17
10.269444444444389,-0.265,0.155
10.272222222222126,-0.295,0.16
10.275000000000091,-0.285,0.19
10.277777777777828,-0.285,0.195
10.280555555555566,-0.275,0.185
10.283333333333303,-0.29,0.165
10.28611111111104,-0.305,0.15
10.288888888888778,-0.32,0.16
10.291666666666742,-0.305,0.185
10.29444444444448,-0.285,0.19
10.297222222222217,-0.285,0.19
10.299999999999955,-0.305,0.175
10.302777777777692,-0.29,0.16
10.30555555555543,-0.285,0.155
10.308333333333394,-0.265,0.17
10.311111111111131,-0.265,0.185
10.313888888888869,-0.26,0.18
10.316666666666606,-0.255,0.18
10.31944444444457,-0.26,0.165
10.322222222222308,-0.275,0.175
10.325000000000045,-0.255,0.185
10.327777777777783,-0.235,0.19
10.33055555555552,-0.23,0.2
10.333333333333258,-0.23,0.18
10.336111111111222,-0.24,0.175
10.33888888888896,-0.25,0.17
10.341666666666697,-0.255,0.185
10.344444444444434,-0.245,0.205
10.347222222222172,-0.235,0.205
10.349999999999909,-0.225,0.19
10.352777777777874,-0.265,0.175
10.355555555555611,-0.255,0.165
10.358333333333348,-0.265,0.165
10.361111111111086,-0.23,0.195
10.363888888888823,-0.22,0.2
10.36666666666656,-0.23,0.185
10.369444444444525,-0.235,0.175
10.372222222222263,-0.245,0.175
10.375,-0.235,0.19
10.377777777777737,-0.235,0.195
10.380555555555475,-0.21,0.195
10.38333333333344,-0.21,0.185
10.386111111111177,-0.21,0.16
10.388888888888914,-0.215,0.17
10.391666666666652,-0.2,0.195
10.394444444444389,-0.175,0.205
10.397222222222126,-0.16,0.205
10.400000000000091,-0.18,0.2
10.402777777777828,-0.2,0.185
10.405555555555566,-0.205,0.18
10.408333333333303,-0.22,0.19
10.41111111111104,-0.21,0.19
10.413888888888778,-0.195,0.2
10.416666666666742,-0.19,0.18
10.41944444444448,-0.195,0.17
10.422222222222217,-0.2,0.18
10.424999999999955,-0.185,0.195
10.427777777777692,-0.18,0.205
10.43055555555543,-0.165,0.2
10.433333333333394,-0.175,0.19
10.436111111111131,-0.19,0.185
10.438888888888869,-0.2,0.175
10.441666666666606,-0.19,0.2
10.44444444444457,-0.17,0.205
10.447222222222308,-0.155,0.19
10.450000000000045,-0.135,0.185
10.452777777777783,-0.145,0.175
10.45555555555552,-0.145,0.18
10.458333333333258,-0.155,0.19
10.461111111111222,-0.16,0.21
10.46388888888896,-0.14,0.19
10.466666666666697,-0.135,0.2
10.469444444444434,-0.125,0.185
10.472222222222172,-0.13,0.17
10.474999999999909,-0.13,0.19
10.477777777777874,-0.125,0.2
10.480555555555611,-0.12,0.185
10.483333333333348,-0.125,0.2
10.486111111111086,-0.14,0.185
10.488888888888823,-0.185,0.2
10.49166666666656,-0.175,0.195
10.494444444444525,-0.155,0.21
10.497222222222263,-0.135,0.2
10.5,-0.13,0.195
10.502777777777737,-0.145,0.18
10.505555555555475,-0.16,0.195
10.50833333333344,-0.145,0.19
10.511111111111177,-0.125,0.21
10.513888888888914,-0.11,0.21
10.516666666666652,-0.105,0.205
10.519444444444389,-0.1,0.195
10.522222222222126,-0.115,0.2
10.525000000000091,-0.105,0.215
10.527777777777828,-0.08,0.225
10.530555555555566,-0.09,0.22
10.533333333333303,-0.085,0.205
10.53611111111104,-0.11,0.19
10.538888888888778,-0.125,0.19
10.541666666666742,-0.11,0.185
10.54444444444448,-0.095,0.2
10.547222222222217,-0.1,0.185
10.549999999999955,-0.105,0.185
10.552777777777692,-0.115,0.17
10.55555555555543,-0.115,0.165
10.558333333333394,-0.11,0.17
10.561111111111131,-0.085,0.17
10.563888888888869,-0.075,0.165
10.566666666666606,-0.08,0.15
10.56944444444457,-0.08,0.145
10.572222222222308,-0.08,0.11
10.575000000000045,-0.075,0.125
10.577777777777783,-0.06,0.125
10.58055555555552,-0.025,0.125
10.583333333333258,-0.01,0.115
10.586111111111222,-0.01,0.09
10.58888888888896,-0.01,0.105
10.591666666666697,0.015,0.135
10.594444444444434,0.03,0.16
10.597222222222172,0.045,0.16
10.599999999999909,0.04,0.16
10.602777777777874,0.02,0.15
10.605555555555611,-0.005,0.15
10.608333333333348,-0.04,0.19
10.611111111111086,-0.045,0.205
10.613888888888823,-0.035,0.24
10.61666666666656,-0.015,0.23
10.619444444444525,-0.02,0.225
10.622222222222263,-0.03,0.22
10.625,-0.03,0.23
10.627777777777737,-0.035,0.235
10.630555555555475,-0.03,0.235
10.63333333333344,-0.08,0.215
10.636111111111177,-0.1,0.2
10.638888888888914,-0.105,0.21
10.641666666666652,-0.115,0.225
10.644444444444389,-0.08,0.22
10.647222222222126,-0.06,0.23
10.650000000000091,-0.055,0.26
10.652777777777828,-0.06,0.305
10.655555555555566,-0.055,0.375
10.658333333333303,-0.055,0.405
10.66111111111104,-0.035,0.375
10.663888888888778,-0.035,0.265
10.666666666666742,-0.055,0.125
10.66944444444448,-0.06,-0.095
10.672222222222217,-0.03,-0.325
10.674999999999955,0.055,-0.545
10.677777777777692,0.23,-0.74
10.68055555555543,0.47,-0.87
10.683333333333394,0.685,-0.95
10.686111111111131,0.87,-0.93
10.688888888888869,1.025,-0.825
10.691666666666606,1.13,-0.695
10.69444444444457,1.11,-0.52
10.697222222222308,0.95,-0.37
10.700000000000045,0.63,-0.22
10.702777777777783,0.28,-0.055
10.70555555555552,0.035,0.1
10.708333333333258,-0.065,0.22
10.711111111111222,-0.085,0.295
10.71388888888896,-0.055,0.31
10.716666666666697,-0.04,0.305
10.719444444444434,-0.03,0.305
10.722222222222172,-0.04,0.32
10.724999999999909,-0.035,0.325
10.727777777777874,-0.02,0.34
10.730555555555611,-0.02,0.35
10.733333333333348,-0.025,0.335
10.736111111111086,-0.03,0.32
10.738888888888823,-0.035,0.335
10.74166666666656,-0.025,0.34
10.744444444444525,-0.005,0.35
10.747222222222263,-0.005,0.355
10.75,0,0.345
10.752777777777737,-0.01,0.34
10.755555555555475,0,0.335
10.75833333333344,-0.005,0.345
10.761111111111177,0.015,0.355
10.763888888888914,0.05,0.35
10.766666666666652,0.035,0.335
10.769444444444389,0.025,0.335
10.772222222222126,0.005,0.32
10.775000000000091,-0.005,0.35
10.777777777777828,0.005,0.365
10.780555555555566,0.015,0.36
10.783333333333303,0.03,0.345
10.78611111111104,0.025,0.325
10.788888888888778,0.025,0.33
10.791666666666742,0.035,0.335
10.79444444444448,0.025,0.355
10.797222222222217,0.025,0.355
10.799999999999955,0,0.34
10.802777777777692,0.005,0.335
10.80555555555543,0.01,0.335
10.808333333333394,0.01,0.335
10.811111111111131,0.025,0.35
10.813888888888869,0.035,0.34
10.816666666666606,0.04,0.34
10.81944444444457,0.015,0.315
10.822222222222308,0,0.335
10.825000000000045,0.02,0.335
10.827777777777783,0.045,0.355
10.83055555555552,0.055,0.345
10.833333333333258,0.05,0.34
10.836111111111222,0.04,0.325
10.83888888888896,0.01,0.33
10.841666666666697,0.01,0.345
10.844444444444434,0.04,0.35
10.847222222222172,0.05,0.355
10.849999999999909,0.035,0.34
10.852777777777874,0.04,0.325
10.855555555555611,0.025,0.325
10.858333333333348,0.005,0.33
10.861111111111086,0.01,0.35
10.863888888888823,0.025,0.35
10.86666666666656,0.03,0.34
10.869444444444525,0.025,0.33
10.872222222222263,0.02,0.33
10.875,0.015,0.34
10.877777777777737,0.035,0.36
10.880555555555475,0.045,0.335
10.88333333333344,0.01,0.33
10.886111111111177,-0.015,0.33
10.888888888888914,-0.01,0.335
10.891666666666652,0,0.355
10.894444444444389,0.025,0.35
10.897222222222126,0.04,0.355
10.900000000000091,0.03,0.34
10.902777777777828,0.015,0.33
10.905555555555566,0.015,0.32
10.908333333333303,0.02,0.34
10.91111111111104,0.04,0.34
10.913888888888778,0.04,0.345
10.916666666666742,0.025,0.32
10.91944444444448,0.03,0.305
10.922222222222217,0.02,0.3
10.924999999999955,0.025,0.315
10.927777777777692,0.025,0.33
10.93055555555543,0.015,0.305
10.933333333333394,0.025,0.285
10.936111111111131,0.015,0.28
10.938888888888869,0.005,0.285
10.941666666666606,0.025,0.31
10.94444444444457,0.07,0.31
10.947222222222308,0.09,0.315
10.950000000000045,0.075,0.31
10.952777777777783,0.035,0.295
10.95555555555552,0.045,0.295
10.958333333333258,0.07,0.3
10.961111111111222,0.105,0.29
10.96388888888896,0.105,0.295
10.966666666666697,0.08,0.28
10.969444444444434,0.05,0.255
10.972222222222172,0.03,0.25
10.974999999999909,0.03,0.265
10.977777777777874,0.05,0.3
10.980555555555611,0.07,0.3
10.983333333333348,0.045,0.29
10.986111111111086,-0.005,0.305
10.988888888888823,-0.025,0.305
10.99166666666656,-0.02,0.31
10.994444444444525,-0.005,0.315
10.997222222222263,0.01,0.315
11,0,0.285
11.002777777777737,-0.005,0.26
11.005555555555475,-0.035,0.245
11.00833333333344,-0.065,0.24
11.011111111111177,-0.095,0.235
11.013888888888914,-0.09,0.225
11.016666666666652,-0.105,0.215
11.019444444444389,-0.125,0.19
11.022222222222126,-0.14,0.2
11.025000000000091,-0.15,0.215
11.027777777777828,-0.135,0.23
11.030555555555566,-0.12,0.23
11.033333333333303,-0.145,0.215
11.03611111111104,-0.175,0.21
11.038888888888778,-0.18,0.225
11.041666666666742,-0.165,0.23
11.04444444444448,-0.15,0.225
11.047222222222217,-0.13,0.225
11.049999999999955,-0.125,0.225
11.052777777777692,-0.13,0.215
11.05555555555543,-0.14,0.225
11.058333333333394,-0.15,0.23
11.061111111111131,-0.135,0.235
11.063888888888869,-0.115,0.24
11.066666666666606,-0.11,0.23
11.06944444444457,-0.125,0.22
11.072222222222308,-0.14,0.205
11.075000000000045,-0.125,0.24
11.077777777777783,-0.115,0.245
11.08055555555552,-0.105,0.235
11.083333333333258,-0.105,0.21
11.086111111111222,-0.11,0.195
11.08888888888896,-0.105,0.19
11.091666666666697,-0.11,0.205
11.094444444444434,-0.08,0.215
11.097222222222172,-0.055,0.22
11.099999999999909,-0.07,0.215
11.102777777777874,-0.08,0.21
11.105555555555611,-0.095,0.21
11.108333333333348,-0.085,0.22
11.111111111111086,-0.08,0.245
11.113888888888823,-0.065,0.26
11.11666666666656,-0.08,0.285
11.119444444444525,-0.08,0.285
11.122222222222263,-0.115,0.26
11.125,-0.135,0.18
11.127777777777737,-0.18,0.045
11.130555555555475,-0.225,-0.15
11.13333333333344,-0.175,-0.37
11.136111111111177,-0.045,-0.57
11.138888888888914,0.14,-0.705
11.141666666666652,0.355,-0.785
11.144444444444389,0.625,-0.77
11.147222222222126,0.91,-0.695
11.150000000000091,1.13,-0.57
11.152777777777828,1.19,-0.445
11.155555555555566,1.065,-0.31
11.158333333333303,0.79,-0.115
11.16111111111104,0.49,0.07
11.163888888888778,0.265,0.22
11.166666666666742,0.145,0.285
11.16944444444448,0.12,0.27
11.172222222222217,0.11,0.28
11.174999999999955,0.095,0.305
11.177777777777692,0.08,0.315
11.18055555555543,0.045,0.315
11.183333333333394,0.015,0.3
11.186111111111131,-0.01,0.265
11.188888888888869,-0.025,0.275
11.191666666666606,-0.035,0.29
11.19444444444457,-0.02,0.295
11.197222222222308,0,0.28
11.200000000000045,0,0.275
11.202777777777783,-0.005,0.265
11.20555555555552,-0.04,0.28
11.208333333333258,-0.035,0.285
11.211111111111222,-0.03,0.305
11.21388888888896,0.005,0.29
11.216666666666697,0.01,0.28
11.219444444444434,0,0.265
11.222222222222172,-0.035,0.27
11.224999999999909,-0.05,0.285
11.227777777777874,-0.05,0.3
11.230555555555611,-0.04,0.305
11.233333333333348,-0.025,0.3
11.236111111111086,-0.045,0.28
11.238888888888823,-0.05,0.27
11.24166666666656,-0.04,0.28
11.244444444444525,-0.015,0.305
11.247222222222263,-0.02,0.3
11.25,-0.025,0.295
11.252777777777737,-0.03,0.28
11.255555555555475,-0.06,0.29
11.25833333333344,-0.05,0.3
11.261111111111177,-0.04,0.3
11.263888888888914,-0.03,0.3
11.266666666666652,-0.03,0.31
11.269444444444389,-0.065,0.295
11.272222222222126,-0.06,0.285
11.275000000000091,-0.06,0.305
11.277777777777828,-0.045,0.31
11.280555555555566,-0.02,0.305
11.283333333333303,-0.04,0.3
11.28611111111104,-0.05,0.295
11.288888888888778,-0.07,0.29
11.291666666666742,-0.075,0.3
11.29444444444448,-0.06,0.315
11.297222222222217,-0.04,0.305
11.299999999999955,-0.045,0.29
11.302777777777692,-0.045,0.285
11.30555555555543,-0.045,0.3
11.308333333333394,-0.04,0.29
11.311111111111131,-0.04,0.32
11.313888888888869,-0.04,0.315
11.316666666666606,-0.065,0.295
11.31944444444457,-0.085,0.28
11.322222222222308,-0.09,0.275
11.325000000000045,-0.075,0.285
11.327777777777783,-0.05,0.305
11.33055555555552,-0.025,0.3
11.333333333333258,-0.03,0.3
11.336111111111222,-0.06,0.29
