time,MLII
0,-0.375
0.002777778,-0.355
0.005555556,-0.35
0.008333333,-0.345
0.011111111,-0.35
0.013888888888800466,-0.365
0.016666667,-0.375
0.019444444444388864,-0.39
0.022222222222239907,-0.37
0.024999999999977263,-0.375
0.027777777777941992,-0.375
0.030555556,-0.37
0.033333333,-0.36
0.036111111111267746,-0.35
0.038888889,-0.345
0.041666667,-0.355
0.044444444,-0.355
0.047222222,-0.375
0.049999999999954525,-0.385
0.052777778,-0.375
0.055555556,-0.38
0.058333333,-0.39
0.061111111,-0.4
0.063888889,-0.375
0.066666667,-0.38
0.069444444,-0.38
0.072222222,-0.375
0.075,-0.375
0.077777778,-0.385
0.080555556,-0.39
0.083333333,-0.395
0.086111111,-0.395
0.088888889,-0.4
0.091666667,-0.405
0.094444444,-0.41
0.097222222,-0.405
0.10000000000002274,-0.39
0.1027777777777601,-0.395
0.10555555555561114,-0.385
0.10833333333334849,-0.39
0.11111111111119953,-0.4
0.11388888888893689,-0.395
0.11666666666667425,-0.42
0.1194444444444116,-0.41
0.12222222222226264,-0.415
0.125,-0.42
0.12777777777773736,-0.42
0.1305555555555884,-0.42
0.13333333333332575,-0.41
0.1361111111110631,-0.415
0.13888888888880047,-0.41
0.1416666666666515,-0.395
0.14444444444438886,-0.385
0.1472222222222399,-0.4
0.14999999999997726,-0.405
0.152777778,-0.41
0.15555555555556566,-0.42
0.15833333333330302,-0.42
0.16111111111126775,-0.415
0.16388888888877773,-0.425
0.16666666666662877,-0.415
0.16944444444436613,-0.4
0.17222222222221717,-0.39
0.17499999999995453,-0.395
0.17777777777780557,-0.39
0.1805555555556566,-0.395
0.18333333333328028,-0.385
0.186111111,-0.395
0.188888889,-0.395
0.19166666666671972,-0.4
0.1944444444443434,-0.395
0.19722222222219443,-0.39
0.20000000000004547,-0.38
0.20277777777778283,-0.36
0.20555555555563387,-0.335
0.20833333333337123,-0.31
0.21111111111122227,-0.29
0.21388888888873225,-0.26
0.21666666666669698,-0.245
0.21944444444443434,-0.205
0.222222222,-0.16
0.22500000000002274,-0.105
0.2277777777777601,-0.04
0.23055555555561114,0.045
0.2333333333333485,0.13
0.23611111111119953,0.245
0.2388888888889369,0.385
0.24166666666667425,0.52
0.2444444444444116,0.68
0.24722222222226264,0.84
0.25,1.01
0.25277777777773736,1.175
0.2555555555555884,1.32
0.25833333333332575,1.47
0.2611111111110631,1.575
0.26388888888880047,1.65
0.2666666666666515,1.7
0.26944444444438886,1.695
0.2722222222222399,1.67
0.27499999999997726,1.635
0.277777778,1.56
0.28055555555556566,1.475
0.283333333,1.37
0.28611111111126775,1.215
0.28888888888877773,1.015
0.29166666666662877,0.78
0.2944444444443661,0.52
0.29722222222221717,0.235
0.2999999999999545,-0.01
0.30277777777780557,-0.24
0.3055555555556566,-0.37
0.3083333333332803,-0.475
0.311111111,-0.55
0.313888889,-0.585
0.3166666666667197,-0.6
0.3194444444443434,-0.625
0.32222222222219443,-0.635
0.3250000000000455,-0.665
0.32777777777778283,-0.695
0.3305555555556339,-0.725
0.33333333333337123,-0.75
0.33611111111122227,-0.77
0.33888888888873225,-0.775
0.341666667,-0.78
0.34444444444443434,-0.795
0.347222222,-0.805
0.35000000000002274,-0.81
0.3527777777777601,-0.81
0.35555555555561114,-0.82
0.3583333333333485,-0.83
0.36111111111119953,-0.83
0.3638888888889369,-0.84
0.36666666666667425,-0.83
0.3694444444444116,-0.83
0.37222222222226264,-0.835
0.375,-0.85
0.37777777777773736,-0.86
0.3805555555555884,-0.875
0.38333333333332575,-0.885
0.3861111111110631,-0.905
0.38888888888880047,-0.91
0.3916666666666515,-0.935
0.39444444444438886,-0.945
0.3972222222222399,-0.94
0.39999999999997726,-0.955
0.402777778,-0.96
0.40555555555556566,-0.95
0.408333333,-0.96
0.41111111111126775,-0.96
0.41388888888877773,-0.975
0.41666666666662877,-0.98
0.4194444444443661,-1.005
0.42222222222221717,-1.025
0.4249999999999545,-1.035
0.42777777777780557,-1.035
0.4305555555556566,-1.055
0.4333333333332803,-1.065
0.436111111,-1.08
0.438888889,-1.085
0.4416666666667197,-1.105
0.4444444444443434,-1.125
0.44722222222219443,-1.135
0.4500000000000455,-1.16
0.45277777777778283,-1.185
0.4555555555556339,-1.205
0.45833333333337123,-1.215
0.46111111111122227,-1.235
0.46388888888873225,-1.235
0.466666667,-1.235
0.46944444444443434,-1.255
0.472222222,-1.25
0.47500000000002274,-1.255
0.4777777777777601,-1.275
0.48055555555561114,-1.295
0.4833333333333485,-1.3
0.48611111111119953,-1.315
0.4888888888889369,-1.315
0.49166666666667425,-1.315
0.4944444444444116,-1.315
0.49722222222226264,-1.315
0.5,-1.31
0.5027777777777374,-1.29
0.5055555555555884,-1.27
0.5083333333333258,-1.26
0.5111111111110631,-1.24
0.5138888888888005,-1.24
0.5166666666666515,-1.225
0.5194444444443889,-1.21
0.5222222222222399,-1.19
0.5249999999999773,-1.17
0.527777778,-1.145
0.5305555555555657,-1.115
0.533333333,-1.08
0.5361111111112677,-1.04
0.5388888888887777,-1.015
0.5416666666666288,-0.98
0.5444444444443661,-0.955
0.5472222222222172,-0.93
0.5499999999999545,-0.91
0.5527777777778056,-0.895
0.5555555555556566,-0.865
0.5583333333332803,-0.84
0.561111111,-0.81
0.563888889,-0.785
0.5666666666667197,-0.765
0.5694444444443434,-0.735
0.5722222222221944,-0.71
0.5750000000000455,-0.695
0.5777777777777828,-0.69
0.5805555555556339,-0.685
0.5833333333333712,-0.68
0.5861111111112223,-0.68
0.5888888888887323,-0.69
0.591666667,-0.675
0.5944444444444343,-0.67
0.597222222,-0.645
0.6000000000000227,-0.64
0.6027777777777601,-0.625
0.6055555555556111,-0.605
0.6083333333333485,-0.6
0.6111111111111995,-0.61
0.6138888888889369,-0.61
0.6166666666666742,-0.62
0.6194444444444116,-0.64
0.6222222222222626,-0.64
0.625,-0.64
0.6277777777777374,-0.64
0.6305555555555884,-0.63
0.6333333333333258,-0.625
0.6361111111110631,-0.615
0.6388888888888005,-0.61
0.6416666666666515,-0.605
0.6444444444443889,-0.62
0.6472222222222399,-0.62
0.6499999999999773,-0.625
0.652777778,-0.64
0.6555555555555657,-0.63
0.658333333,-0.64
0.6611111111112677,-0.655
0.6638888888887777,-0.645
0.6666666666666288,-0.645
0.6694444444443661,-0.63
0.6722222222222172,-0.63
0.6749999999999545,-0.635
0.6777777777778056,-0.645
0.6805555555556566,-0.65
0.6833333333332803,-0.655
0.686111111,-0.645
0.688888889,-0.655
0.6916666666667197,-0.645
0.6944444444443434,-0.63
0.6972222222221944,-0.62
0.7000000000000455,-0.615
0.7027777777777828,-0.615
0.7055555555556339,-0.61
0.7083333333333712,-0.625
0.7111111111112223,-0.645
0.7138888888887323,-0.66
0.716666667,-0.665
0.7194444444444343,-0.645
0.722222222,-0.605
0.7250000000000227,-0.53
0.7277777777777601,-0.41
0.7305555555556111,-0.265
0.7333333333333485,-0.105
0.7361111111111995,0.055
0.7388888888889369,0.17
0.7416666666666742,0.255
0.7444444444444116,0.31
0.7472222222222626,0.315
0.75,0.27
0.7527777777777374,0.155
0.7555555555555884,0.025
0.7583333333333258,-0.135
0.7611111111110631,-0.275
0.7638888888888005,-0.41
0.7666666666666515,-0.525
0.7694444444443889,-0.61
0.7722222222222399,-0.695
0.7749999999999773,-0.81
0.777777778,-0.94
0.7805555555555657,-1.06
0.783333333,-1.16
0.7861111111112677,-1.22
0.7888888888887777,-1.24
0.7916666666666288,-1.235
0.7944444444443661,-1.205
0.7972222222222172,-1.185
0.7999999999999545,-1.155
0.8027777777778056,-1.13
0.8055555555556566,-1.105
0.8083333333332803,-1.1
0.811111111,-1.09
0.813888889,-1.06
0.8166666666667197,-1.025
0.8194444444443434,-0.99
0.8222222222221944,-0.95
0.8250000000000455,-0.91
0.8277777777777828,-0.87
0.8305555555556339,-0.835
0.8333333333333712,-0.795
0.8361111111112223,-0.76
0.8388888888887323,-0.72
0.841666667,-0.67
0.8444444444444343,-0.635
0.847222222,-0.625
0.8500000000000227,-0.615
0.8527777777777601,-0.605
0.8555555555556111,-0.59
0.8583333333333485,-0.595
0.8611111111111995,-0.59
0.8638888888889369,-0.59
0.8666666666666742,-0.58
0.8694444444444116,-0.585
0.8722222222222626,-0.575
0.875,-0.575
0.8777777777777374,-0.58
0.8805555555555884,-0.59
0.8833333333333258,-0.59
0.8861111111110631,-0.615
0.8888888888888005,-0.615
0.8916666666666515,-0.625
0.8944444444443889,-0.63
0.8972222222222399,-0.64
0.8999999999999773,-0.64
0.902777778,-0.655
0.9055555555555657,-0.655
0.908333333,-0.66
0.9111111111112677,-0.665
0.9138888888887777,-0.675
0.9166666666666288,-0.67
0.9194444444443661,-0.67
0.9222222222222172,-0.66
0.9249999999999545,-0.66
0.9277777777778056,-0.645
0.9305555555556566,-0.625
0.9333333333332803,-0.6
0.936111111,-0.595
0.938888889,-0.565
0.9416666666667197,-0.555
0.9444444444443434,-0.55
0.9472222222221944,-0.535
0.9500000000000455,-0.525
0.9527777777777828,-0.52
0.9555555555556339,-0.51
0.9583333333333712,-0.505
0.9611111111112223,-0.49
0.9638888888887323,-0.455
0.966666667,-0.42
0.9694444444444343,-0.37
0.972222222,-0.34
0.9750000000000227,-0.305
0.9777777777777601,-0.27
0.9805555555556111,-0.235
0.9833333333333485,-0.21
0.9861111111111995,-0.195
0.9888888888889369,-0.175
0.9916666666666742,-0.155
0.9944444444444116,-0.13
0.9972222222222626,-0.11
1,-0.08
1.0027777777777374,-0.055
1.0055555555555884,-0.03
1.0083333333333258,-0.02
1.011111111111063,-0.01
1.0138888888888005,0
1.0166666666666515,0
1.0194444444443889,-0.005
1.022222222,-0.015
1.0249999999999773,-0.03
1.027777777777942,-0.025
1.0305555555555657,-0.02
1.033333333333303,-0.015
1.0361111111112677,-0.02
1.0388888888887777,-0.025
1.0416666666666288,-0.04
1.0444444444443661,-0.055
1.0472222222222172,-0.075
1.0499999999999545,-0.105
1.0527777777778056,-0.13
1.0555555555556566,-0.14
1.0583333333332803,-0.165
1.061111111111245,-0.185
1.063888888888755,-0.19
1.0666666666667197,-0.195
1.0694444444443434,-0.21
1.0722222222221944,-0.225
1.0750000000000455,-0.235
1.0777777777777828,-0.275
1.0805555555556339,-0.285
1.0833333333333712,-0.305
1.0861111111112223,-0.325
1.0888888888887323,-0.35
1.091666666666697,-0.38
1.0944444444444343,-0.39
1.097222222222058,-0.405
1.1000000000000227,-0.395
1.102777778,-0.395
1.1055555555556111,-0.405
1.1083333333333485,-0.415
1.1111111111111995,-0.42
1.113888888888937,-0.415
1.1166666666666742,-0.425
1.1194444444444116,-0.445
1.1222222222222626,-0.45
1.125,-0.455
1.1277777777777374,-0.455
1.1305555555555884,-0.45
1.1333333333333258,-0.445
1.136111111111063,-0.45
1.1388888888888005,-0.445
1.1416666666666515,-0.445
1.1444444444443889,-0.445
1.147222222,-0.44
1.1499999999999773,-0.44
1.152777777777942,-0.45
1.1555555555555657,-0.46
1.158333333333303,-0.46
1.1611111111112677,-0.46
1.1638888888887777,-0.455
1.1666666666666288,-0.45
1.1694444444443661,-0.43
1.1722222222222172,-0.43
1.1749999999999545,-0.42
1.1777777777778056,-0.425
1.1805555555556566,-0.435
1.1833333333332803,-0.435
1.186111111111245,-0.435
1.188888888888755,-0.44
1.1916666666667197,-0.45
1.1944444444443434,-0.445
1.1972222222221944,-0.44
1.2000000000000455,-0.44
1.2027777777777828,-0.435
1.2055555555556339,-0.425
1.2083333333333712,-0.425
1.2111111111112223,-0.425
1.2138888888887323,-0.43
1.216666666666697,-0.425
1.2194444444444343,-0.435
1.222222222222058,-0.445
1.2250000000000227,-0.45
1.227777778,-0.445
1.2305555555556111,-0.45
1.2333333333333485,-0.435
1.2361111111111995,-0.45
1.238888888888937,-0.445
1.2416666666666742,-0.45
1.2444444444444116,-0.45
1.2472222222222626,-0.45
1.25,-0.455
1.2527777777777374,-0.465
1.2555555555555884,-0.45
1.2583333333333258,-0.455
1.261111111111063,-0.45
1.2638888888888005,-0.465
1.2666666666666515,-0.465
1.2694444444443889,-0.455
1.272222222,-0.445
1.2749999999999773,-0.44
1.277777777777942,-0.445
1.2805555555555657,-0.44
1.283333333333303,-0.445
1.2861111111112677,-0.445
1.2888888888887777,-0.475
1.2916666666666288,-0.465
1.2944444444443661,-0.475
1.2972222222222172,-0.475
1.2999999999999545,-0.47
1.3027777777778056,-0.465
1.3055555555556566,-0.455
1.3083333333332803,-0.455
1.311111111111245,-0.455
1.313888888888755,-0.465
1.3166666666667197,-0.46
1.3194444444443434,-0.47
1.3222222222221944,-0.475
1.3250000000000455,-0.48
1.3277777777777828,-0.47
1.3305555555556339,-0.48
1.3333333333333712,-0.46
1.3361111111112223,-0.46
1.3388888888887323,-0.455
1.341666666666697,-0.45
1.3444444444444343,-0.45
1.347222222222058,-0.45
1.3500000000000227,-0.455
1.352777778,-0.455
1.3555555555556111,-0.45
1.3583333333333485,-0.45
1.3611111111111995,-0.455
1.363888888888937,-0.45
1.3666666666666742,-0.425
1.3694444444444116,-0.41
1.3722222222222626,-0.39
1.375,-0.37
1.3777777777777374,-0.35
1.3805555555555884,-0.335
1.3833333333333258,-0.295
1.386111111111063,-0.255
1.3888888888888005,-0.215
1.3916666666666515,-0.17
1.3944444444443889,-0.105
1.397222222,-0.03
1.3999999999999773,0.065
1.402777777777942,0.195
1.4055555555555657,0.325
1.408333333333303,0.465
1.4111111111112677,0.62
1.4138888888887777,0.785
1.4166666666666288,0.96
1.4194444444443661,1.115
1.4222222222222172,1.24
1.4249999999999545,1.34
1.4277777777778056,1.39
1.4305555555556566,1.405
1.4333333333332803,1.385
1.436111111111245,1.33
1.438888888888755,1.255
1.4416666666667197,1.15
1.4444444444443434,1.055
1.4472222222221944,0.92
1.4500000000000455,0.75
1.4527777777777828,0.56
1.4555555555556339,0.335
1.4583333333333712,0.115
1.4611111111112223,-0.09
1.4638888888887323,-0.25
1.466666666666697,-0.37
1.4694444444444343,-0.45
1.472222222222058,-0.5
1.4750000000000227,-0.545
1.477777778,-0.57
1.4805555555556111,-0.59
1.4833333333333485,-0.615
1.4861111111111995,-0.65
1.488888888888937,-0.67
1.4916666666666742,-0.69
1.4944444444444116,-0.7
1.4972222222222626,-0.72
1.5,-0.71
1.5027777777777374,-0.725
1.5055555555555884,-0.72
1.5083333333333258,-0.73
1.511111111111063,-0.74
1.5138888888888005,-0.75
1.5166666666666515,-0.765
1.5194444444443889,-0.795
1.522222222,-0.815
1.5249999999999773,-0.855
1.527777777777942,-0.855
1.5305555555555657,-0.875
1.533333333333303,-0.895
1.5361111111112677,-0.9
1.5388888888887777,-0.92
1.5416666666666288,-0.92
1.5444444444443661,-0.93
1.5472222222222172,-0.95
1.5499999999999545,-0.945
1.5527777777778056,-0.97
1.5555555555556566,-0.985
1.5583333333332803,-0.985
1.561111111111245,-1
1.563888888888755,-1.02
1.5666666666667197,-1.015
1.5694444444443434,-1.035
1.5722222222221944,-1.03
1.5750000000000455,-1.035
1.5777777777777828,-1.05
1.5805555555556339,-1.065
1.5833333333333712,-1.09
1.5861111111112223,-1.115
1.5888888888887323,-1.13
1.591666666666697,-1.145
1.5944444444444343,-1.17
1.597222222222058,-1.185
1.6000000000000227,-1.19
1.602777778,-1.2
1.6055555555556111,-1.205
1.6083333333333485,-1.21
1.6111111111111995,-1.23
1.613888888888937,-1.25
1.6166666666666742,-1.265
1.6194444444444116,-1.28
1.6222222222222626,-1.29
1.625,-1.285
1.6277777777777374,-1.295
1.6305555555555884,-1.295
1.6333333333333258,-1.3
1.636111111111063,-1.28
1.6388888888888005,-1.285
1.6416666666666515,-1.28
1.6444444444443889,-1.28
1.647222222,-1.28
1.6499999999999773,-1.29
1.652777777777942,-1.285
1.6555555555555657,-1.275
1.658333333333303,-1.265
1.6611111111112677,-1.26
1.6638888888887777,-1.245
1.6666666666666288,-1.225
1.6694444444443661,-1.2
1.6722222222222172,-1.165
1.6749999999999545,-1.155
1.6777777777778056,-1.14
1.6805555555556566,-1.105
1.6833333333332803,-1.095
1.686111111111245,-1.07
1.688888888888755,-1.055
1.6916666666667197,-1.025
1.6944444444443434,-1
1.6972222222221944,-0.97
1.7000000000000455,-0.93
1.7027777777777828,-0.885
1.7055555555556339,-0.855
1.7083333333333712,-0.825
1.7111111111112223,-0.8
1.7138888888887323,-0.78
1.716666666666697,-0.775
1.7194444444444343,-0.77
1.722222222222058,-0.75
1.7250000000000227,-0.75
1.727777778,-0.715
1.7305555555556111,-0.7
1.7333333333333485,-0.685
1.7361111111111995,-0.675
1.738888888888937,-0.65
1.7416666666666742,-0.64
1.7444444444444116,-0.64
1.7472222222222626,-0.635
1.75,-0.635
1.7527777777777374,-0.64
1.7555555555555884,-0.645
1.7583333333333258,-0.64
1.761111111111063,-0.635
1.7638888888888005,-0.635
1.7666666666666515,-0.63
1.7694444444443889,-0.62
1.772222222,-0.615
1.7749999999999773,-0.615
1.777777777777942,-0.635
1.7805555555555657,-0.625
1.783333333333303,-0.625
1.7861111111112677,-0.635
1.7888888888887777,-0.635
1.7916666666666288,-0.645
1.7944444444443661,-0.655
1.7972222222222172,-0.64
1.7999999999999545,-0.635
1.8027777777778056,-0.65
1.8055555555556566,-0.63
1.8083333333332803,-0.625
1.811111111111245,-0.63
1.813888888888755,-0.62
1.8166666666667197,-0.635
1.8194444444443434,-0.65
1.8222222222221944,-0.645
1.8250000000000455,-0.645
1.8277777777777828,-0.635
1.8305555555556339,-0.63
1.8333333333333712,-0.62
1.8361111111112223,-0.605
1.8388888888887323,-0.595
1.841666666666697,-0.59
1.8444444444444343,-0.605
1.847222222222058,-0.61
1.8500000000000227,-0.635
1.852777778,-0.65
1.8555555555556111,-0.68
1.8583333333333485,-0.69
1.8611111111111995,-0.68
1.863888888888937,-0.68
1.8666666666666742,-0.645
1.8694444444444116,-0.6
1.8722222222222626,-0.54
1.875,-0.45
1.8777777777777374,-0.35
1.8805555555555884,-0.22
1.8833333333333258,-0.12
1.886111111111063,-0.01
1.8888888888888005,0.095
1.8916666666666515,0.17
1.8944444444443889,0.225
1.897222222,0.23
1.8999999999999773,0.2
1.902777777777942,0.105
1.9055555555555657,-0.05
1.908333333333303,-0.215
1.9111111111112677,-0.385
1.9138888888887777,-0.52
1.9166666666666288,-0.625
1.9194444444443661,-0.715
1.9222222222222172,-0.8
1.9249999999999545,-0.895
1.9277777777778056,-0.985
1.9305555555556566,-1.075
1.9333333333332803,-1.155
1.936111111111245,-1.205
1.938888888888755,-1.21
1.9416666666667197,-1.19
1.9444444444443434,-1.18
1.9472222222221944,-1.13
1.9500000000000455,-1.105
1.9527777777777828,-1.075
1.9555555555556339,-1.075
1.9583333333333712,-1.055
1.9611111111112223,-1.015
1.9638888888887323,-0.985
1.966666666666697,-0.95
1.9694444444444343,-0.91
1.972222222222058,-0.86
1.9750000000000227,-0.825
1.977777778,-0.8
1.9805555555556111,-0.785
1.9833333333333485,-0.765
1.9861111111111995,-0.745
1.988888888888937,-0.725
1.9916666666666742,-0.71
1.9944444444444116,-0.685
1.9972222222222626,-0.67
2,-0.645
2.0027777777777374,-0.635
2.0055555555555884,-0.62
2.0083333333333258,-0.61
2.011111111111063,-0.62
2.0138888888888005,-0.62
2.0166666666666515,-0.615
2.019444444444389,-0.61
2.022222222,-0.61
2.0249999999999773,-0.61
2.027777777777942,-0.595
2.0305555555555657,-0.59
2.033333333333303,-0.605
2.0361111111112677,-0.59
2.0388888888887777,-0.57
2.0416666666666288,-0.565
2.044444444444366,-0.57
2.047222222222217,-0.575
2.0499999999999545,-0.585
2.0527777777778056,-0.595
2.0555555555556566,-0.605
2.0583333333332803,-0.61
2.061111111111245,-0.605
2.063888888888755,-0.61
2.0666666666667197,-0.595
2.0694444444443434,-0.59
2.0722222222221944,-0.575
2.0750000000000455,-0.575
2.077777777777783,-0.56
2.080555555555634,-0.555
2.0833333333333712,-0.555
2.0861111111112223,-0.555
2.0888888888887323,-0.545
2.091666666666697,-0.555
2.0944444444444343,-0.55
2.097222222222058,-0.525
2.1000000000000227,-0.5
2.102777778,-0.47
2.105555555555611,-0.445
2.1083333333333485,-0.41
2.1111111111111995,-0.4
2.113888888888937,-0.38
2.1166666666666742,-0.345
2.1194444444444116,-0.32
2.1222222222222626,-0.31
2.125,-0.285
2.1277777777777374,-0.26
2.1305555555555884,-0.225
2.1333333333333258,-0.18
2.136111111111063,-0.16
2.1388888888888005,-0.125
2.1416666666666515,-0.08
2.144444444444389,-0.05
2.147222222,-0.03
2.1499999999999773,-0.01
2.152777777777942,0.01
2.1555555555555657,0.025
2.158333333333303,0.025
2.1611111111112677,0.045
2.1638888888887777,0.055
2.1666666666666288,0.07
2.169444444444366,0.06
2.172222222222217,0.08
2.1749999999999545,0.085
2.1777777777778056,0.07
2.1805555555556566,0.07
2.1833333333332803,0.045
2.186111111111245,0.02
2.188888888888755,0.005
2.1916666666667197,0
2.1944444444443434,-0.015
2.1972222222221944,-0.03
2.2000000000000455,-0.045
2.202777777777783,-0.065
2.205555555555634,-0.07
2.2083333333333712,-0.09
2.2111111111112223,-0.115
2.2138888888887323,-0.13
2.216666666666697,-0.155
2.2194444444444343,-0.18
2.222222222222058,-0.205
2.2250000000000227,-0.215
2.227777778,-0.23
2.230555555555611,-0.265
2.2333333333333485,-0.265
2.2361111111111995,-0.275
2.238888888888937,-0.28
2.2416666666666742,-0.3
2.2444444444444116,-0.31
2.2472222222222626,-0.315
2.25,-0.335
2.2527777777777374,-0.35
2.2555555555555884,-0.365
2.2583333333333258,-0.37
2.261111111111063,-0.375
2.2638888888888005,-0.37
2.2666666666666515,-0.375
2.269444444444389,-0.36
2.272222222,-0.35
2.2749999999999773,-0.345
2.277777777777942,-0.345
2.2805555555555657,-0.36
2.283333333333303,-0.37
2.2861111111112677,-0.38
2.2888888888887777,-0.39
2.2916666666666288,-0.39
2.294444444444366,-0.395
2.297222222222217,-0.385
2.2999999999999545,-0.37
2.3027777777778056,-0.365
2.3055555555556566,-0.36
2.3083333333332803,-0.355
2.311111111111245,-0.36
2.313888888888755,-0.37
2.3166666666667197,-0.36
2.3194444444443434,-0.37
2.3222222222221944,-0.375
2.3250000000000455,-0.38
2.327777777777783,-0.38
2.330555555555634,-0.365
2.3333333333333712,-0.36
2.3361111111112223,-0.36
2.3388888888887323,-0.355
2.341666666666697,-0.36
2.3444444444444343,-0.36
2.347222222222058,-0.355
2.3500000000000227,-0.365
2.352777778,-0.375
2.355555555555611,-0.37
2.3583333333333485,-0.375
2.3611111111111995,-0.385
2.363888888888937,-0.385
2.3666666666666742,-0.39
2.3694444444444116,-0.37
2.3722222222222626,-0.365
2.375,-0.365
2.3777777777777374,-0.365
2.3805555555555884,-0.385
2.3833333333333258,-0.38
2.386111111111063,-0.385
2.3888888888888005,-0.39
2.3916666666666515,-0.4
2.394444444444389,-0.4
2.397222222,-0.4
2.3999999999999773,-0.395
2.402777777777942,-0.39
2.4055555555555657,-0.395
2.408333333333303,-0.395
2.4111111111112677,-0.4
2.4138888888887777,-0.39
2.4166666666666288,-0.395
2.419444444444366,-0.41
2.422222222222217,-0.415
2.4249999999999545,-0.415
2.4277777777778056,-0.42
2.4305555555556566,-0.425
2.4333333333332803,-0.415
2.436111111111245,-0.415
2.438888888888755,-0.41
2.4416666666667197,-0.405
2.4444444444443434,-0.405
2.4472222222221944,-0.42
2.4500000000000455,-0.425
2.452777777777783,-0.42
2.455555555555634,-0.435
2.4583333333333712,-0.425
2.4611111111112223,-0.425
2.4638888888887323,-0.425
2.466666666666697,-0.41
2.4694444444444343,-0.41
2.472222222222058,-0.415
2.4750000000000227,-0.42
2.477777778,-0.415
2.480555555555611,-0.42
2.4833333333333485,-0.42
2.4861111111111995,-0.43
2.488888888888937,-0.435
2.4916666666666742,-0.43
2.4944444444444116,-0.43
2.4972222222222626,-0.425
2.5,-0.42
2.5027777777777374,-0.42
2.5055555555555884,-0.42
2.5083333333333258,-0.415
2.511111111111063,-0.42
2.5138888888888005,-0.43
2.5166666666666515,-0.405
2.519444444444389,-0.41
2.522222222,-0.41
2.5249999999999773,-0.42
2.527777777777942,-0.415
2.5305555555555657,-0.425
2.533333333333303,-0.415
2.5361111111112677,-0.405
2.5388888888887777,-0.4
2.5416666666666288,-0.39
2.544444444444366,-0.405
2.547222222222217,-0.39
2.5499999999999545,-0.405
2.5527777777778056,-0.405
2.5555555555556566,-0.41
2.5583333333332803,-0.405
2.561111111111245,-0.405
2.563888888888755,-0.41
2.5666666666667197,-0.4
2.5694444444443434,-0.38
2.5722222222221944,-0.36
2.5750000000000455,-0.325
2.577777777777783,-0.31
2.580555555555634,-0.29
2.5833333333333712,-0.275
2.5861111111112223,-0.245
2.5888888888887323,-0.22
2.591666666666697,-0.18
2.5944444444444343,-0.115
2.597222222222058,-0.05
2.6000000000000227,0.035
2.602777778,0.12
2.605555555555611,0.235
2.6083333333333485,0.34
2.6111111111111995,0.47
2.613888888888937,0.63
2.6166666666666742,0.785
2.6194444444444116,0.97
2.6222222222222626,1.135
2.625,1.285
2.6277777777777374,1.44
2.6305555555555884,1.56
2.6333333333333258,1.635
2.636111111111063,1.69
2.6388888888888005,1.715
2.6416666666666515,1.7
2.644444444444389,1.66
2.647222222,1.605
2.6499999999999773,1.525
2.652777777777942,1.435
2.6555555555555657,1.335
2.658333333333303,1.215
2.6611111111112677,1.07
2.6638888888887777,0.885
2.6666666666666288,0.675
2.669444444444366,0.45
2.672222222222217,0.22
2.6749999999999545,0.025
2.6777777777778056,-0.155
2.6805555555556566,-0.29
2.6833333333332803,-0.395
2.686111111111245,-0.465
2.688888888888755,-0.52
2.6916666666667197,-0.555
2.6944444444443434,-0.575
2.6972222222221944,-0.595
2.7000000000000455,-0.61
2.702777777777783,-0.65
2.705555555555634,-0.67
2.7083333333333712,-0.7
2.7111111111112223,-0.745
2.7138888888887323,-0.76
2.716666666666697,-0.78
2.7194444444444343,-0.78
2.722222222222058,-0.8
2.7250000000000227,-0.81
2.727777778,-0.805
2.730555555555611,-0.805
2.7333333333333485,-0.805
2.7361111111111995,-0.8
2.738888888888937,-0.81
2.7416666666666742,-0.81
2.7444444444444116,-0.82
2.7472222222222626,-0.82
2.75,-0.855
2.7527777777777374,-0.855
2.7555555555555884,-0.875
2.7583333333333258,-0.88
2.761111111111063,-0.89
2.7638888888888005,-0.91
2.7666666666666515,-0.925
2.769444444444389,-0.935
2.772222222,-0.92
2.7749999999999773,-0.925
2.777777777777942,-0.93
2.7805555555555657,-0.945
2.783333333333303,-0.95
2.7861111111112677,-0.955
2.7888888888887777,-0.965
2.7916666666666288,-0.97
2.794444444444366,-0.99
2.797222222222217,-0.995
2.7999999999999545,-1.015
2.8027777777778056,-1.015
2.8055555555556566,-1.03
2.8083333333332803,-1.04
2.811111111111245,-1.05
2.813888888888755,-1.07
2.8166666666667197,-1.095
2.8194444444443434,-1.115
2.8222222222221944,-1.14
2.8250000000000455,-1.155
2.827777777777783,-1.17
2.830555555555634,-1.185
2.8333333333333712,-1.19
2.8361111111112223,-1.205
2.8388888888887323,-1.21
2.841666666666697,-1.21
2.8444444444444343,-1.235
2.847222222222058,-1.24
2.8500000000000227,-1.26
2.852777778,-1.29
2.855555555555611,-1.295
2.8583333333333485,-1.31
2.8611111111111995,-1.305
2.863888888888937,-1.31
2.8666666666666742,-1.305
2.8694444444444116,-1.305
2.8722222222222626,-1.295
2.875,-1.27
2.8777777777777374,-1.28
2.8805555555555884,-1.275
2.8833333333333258,-1.29
2.886111111111063,-1.285
2.8888888888888005,-1.28
2.8916666666666515,-1.265
2.894444444444389,-1.255
2.897222222,-1.26
2.8999999999999773,-1.24
2.902777777777942,-1.205
2.9055555555555657,-1.185
2.908333333333303,-1.16
2.9111111111112677,-1.13
2.9138888888887777,-1.11
2.9166666666666288,-1.09
2.919444444444366,-1.06
2.922222222222217,-1.045
2.9249999999999545,-1.015
2.9277777777778056,-0.975
2.9305555555556566,-0.95
2.9333333333332803,-0.91
2.936111111111245,-0.875
2.938888888888755,-0.84
2.9416666666667197,-0.815
2.9444444444443434,-0.78
2.9472222222221944,-0.765
2.9500000000000455,-0.74
2.952777777777783,-0.72
2.955555555555634,-0.705
2.9583333333333712,-0.685
2.9611111111112223,-0.665
2.9638888888887323,-0.65
2.966666666666697,-0.63
2.9694444444444343,-0.61
2.972222222222058,-0.61
2.9750000000000227,-0.59
2.977777778,-0.58
2.980555555555611,-0.575
2.9833333333333485,-0.575
2.9861111111111995,-0.575
2.988888888888937,-0.585
2.9916666666666742,-0.59
2.9944444444444116,-0.585
2.9972222222222626,-0.58
3,-0.57
3.0027777777777374,-0.56
3.0055555555555884,-0.545
3.0083333333333258,-0.55
3.011111111111063,-0.55
3.0138888888888005,-0.565
3.0166666666666515,-0.56
3.019444444444389,-0.575
3.022222222,-0.58
3.0249999999999773,-0.585
3.027777777777942,-0.59
3.0305555555555657,-0.585
3.033333333333303,-0.575
3.0361111111112677,-0.575
3.0388888888887777,-0.565
3.0416666666666288,-0.57
3.044444444444366,-0.57
3.047222222222217,-0.565
3.0499999999999545,-0.58
3.0527777777778056,-0.58
3.0555555555556566,-0.59
3.0583333333332803,-0.585
3.061111111111245,-0.575
3.063888888888755,-0.57
3.0666666666667197,-0.555
3.0694444444443434,-0.54
3.0722222222221944,-0.525
3.0750000000000455,-0.515
3.077777777777783,-0.52
3.080555555555634,-0.545
3.0833333333333712,-0.555
3.0861111111112223,-0.585
3.0888888888887323,-0.615
3.091666666666697,-0.635
3.0944444444444343,-0.625
3.097222222222058,-0.64
3.1000000000000227,-0.62
3.102777778,-0.58
3.105555555555611,-0.52
3.1083333333333485,-0.435
3.1111111111111995,-0.33
3.113888888888937,-0.225
3.1166666666666742,-0.09
3.1194444444444116,0.03
3.1222222222222626,0.125
3.125,0.22
3.1277777777777374,0.275
3.1305555555555884,0.29
3.1333333333333258,0.255
3.136111111111063,0.155
3.1388888888888005,0
3.1416666666666515,-0.17
3.144444444444389,-0.335
3.147222222,-0.465
3.1499999999999773,-0.565
3.152777777777942,-0.65
3.1555555555555657,-0.775
3.158333333333303,-0.9
3.1611111111112677,-1.03
3.1638888888887777,-1.145
3.1666666666666288,-1.24
3.169444444444366,-1.265
3.172222222222217,-1.28
3.1749999999999545,-1.245
3.1777777777778056,-1.205
3.1805555555556566,-1.185
3.1833333333332803,-1.17
3.186111111111245,-1.145
3.188888888888755,-1.135
3.1916666666667197,-1.105
3.1944444444443434,-1.08
3.1972222222221944,-1.065
3.2000000000000455,-1.02
3.202777777777783,-0.96
3.205555555555634,-0.91
3.2083333333333712,-0.86
3.2111111111112223,-0.815
3.2138888888887323,-0.785
3.216666666666697,-0.765
3.2194444444444343,-0.73
3.222222222222058,-0.7
3.2250000000000227,-0.68
3.227777778,-0.63
3.230555555555611,-0.59
3.2333333333333485,-0.555
3.2361111111111995,-0.52
3.238888888888937,-0.505
3.2416666666666742,-0.49
3.2444444444444116,-0.49
3.2472222222222626,-0.5
3.25,-0.495
3.2527777777777374,-0.495
3.2555555555555884,-0.505
3.2583333333333258,-0.515
3.261111111111063,-0.535
3.2638888888888005,-0.52
3.2666666666666515,-0.52
3.269444444444389,-0.515
3.272222222,-0.5
3.2749999999999773,-0.5
3.277777777777942,-0.515
3.2805555555555657,-0.515
3.283333333333303,-0.53
3.2861111111112677,-0.535
3.2888888888887777,-0.55
3.2916666666666288,-0.55
3.294444444444366,-0.57
3.297222222222217,-0.58
3.2999999999999545,-0.575
3.3027777777778056,-0.57
3.3055555555556566,-0.565
3.3083333333332803,-0.56
3.311111111111245,-0.565
3.313888888888755,-0.555
3.3166666666667197,-0.535
3.3194444444443434,-0.54
3.3222222222221944,-0.54
3.3250000000000455,-0.535
3.327777777777783,-0.515
3.330555555555634,-0.515
3.3333333333333712,-0.49
3.3361111111112223,-0.47
3.3388888888887323,-0.45
3.341666666666697,-0.43
3.3444444444444343,-0.415
3.347222222222058,-0.405
3.3500000000000227,-0.39
3.352777778,-0.38
3.355555555555611,-0.37
3.3583333333333485,-0.36
3.3611111111111995,-0.335
3.363888888888937,-0.295
3.3666666666666742,-0.25
3.3694444444444116,-0.21
3.3722222222222626,-0.18
3.375,-0.13
3.3777777777777374,-0.105
3.3805555555555884,-0.07
3.3833333333333258,-0.045
3.386111111111063,-0.015
3.3888888888888005,-0.005
3.3916666666666515,0.01
3.394444444444389,0.025
3.397222222,0.035
3.3999999999999773,0.06
3.402777777777942,0.07
3.4055555555555657,0.1
3.408333333333303,0.14
3.4111111111112677,0.15
3.4138888888887777,0.155
3.4166666666666288,0.145
3.419444444444366,0.15
3.422222222222217,0.14
3.4249999999999545,0.13
3.4277777777778056,0.13
3.4305555555556566,0.125
3.4333333333332803,0.12
3.436111111111245,0.135
3.438888888888755,0.125
3.4416666666667197,0.125
3.4444444444443434,0.1
3.4472222222221944,0.08
3.4500000000000455,0.06
3.452777777777783,0.025
3.455555555555634,0.01
3.4583333333333712,-0.01
3.4611111111112223,-0.02
3.4638888888887323,-0.035
3.466666666666697,-0.05
3.4694444444444343,-0.075
3.472222222222058,-0.08
3.4750000000000227,-0.1
3.477777778,-0.115
3.480555555555611,-0.15
3.4833333333333485,-0.165
3.4861111111111995,-0.17
3.488888888888937,-0.19
3.4916666666666742,-0.2
3.4944444444444116,-0.215
3.4972222222222626,-0.225
3.5,-0.23
3.5027777777777374,-0.24
3.5055555555555884,-0.255
3.5083333333333258,-0.25
3.511111111111063,-0.26
3.5138888888888005,-0.27
3.5166666666666515,-0.285
3.519444444444389,-0.29
3.522222222,-0.305
3.5249999999999773,-0.32
3.527777777777942,-0.315
3.5305555555555657,-0.315
3.533333333333303,-0.32
3.5361111111112677,-0.31
3.5388888888887777,-0.315
3.5416666666666288,-0.32
3.544444444444366,-0.33
3.547222222222217,-0.32
3.5499999999999545,-0.33
3.5527777777778056,-0.33
3.5555555555556566,-0.34
3.5583333333332803,-0.345
3.561111111111245,-0.34
3.563888888888755,-0.345
3.5666666666667197,-0.335
3.5694444444443434,-0.32
3.5722222222221944,-0.315
3.5750000000000455,-0.305
3.577777777777783,-0.315
3.580555555555634,-0.31
3.5833333333333712,-0.32
3.5861111111112223,-0.325
3.5888888888887323,-0.325
3.591666666666697,-0.335
3.5944444444444343,-0.34
3.597222222222058,-0.34
3.6000000000000227,-0.335
3.602777778,-0.325
3.605555555555611,-0.32
3.6083333333333485,-0.305
3.6111111111111995,-0.325
3.613888888888937,-0.32
3.6166666666666742,-0.335
3.6194444444444116,-0.34
3.6222222222222626,-0.34
3.625,-0.345
3.6277777777777374,-0.34
3.6305555555555884,-0.34
3.6333333333333258,-0.33
3.636111111111063,-0.33
3.6388888888888005,-0.33
3.6416666666666515,-0.32
3.644444444444389,-0.34
3.647222222,-0.335
3.6499999999999773,-0.325
3.652777777777942,-0.345
3.6555555555555657,-0.35
3.658333333333303,-0.355
3.6611111111112677,-0.365
3.6638888888887777,-0.36
3.6666666666666288,-0.35
3.669444444444366,-0.35
3.672222222222217,-0.34
3.6749999999999545,-0.34
3.6777777777778056,-0.35
3.6805555555556566,-0.35
3.6833333333332803,-0.355
3.686111111111245,-0.375
3.688888888888755,-0.37
3.6916666666667197,-0.38
3.6944444444443434,-0.375
3.6972222222221944,-0.37
3.7000000000000455,-0.365
3.702777777777783,-0.355
3.705555555555634,-0.355
3.7083333333333712,-0.345
3.7111111111112223,-0.36
3.7138888888887323,-0.35
3.716666666666697,-0.365
3.7194444444444343,-0.37
3.722222222222058,-0.37
3.7250000000000227,-0.38
3.727777778,-0.39
3.730555555555611,-0.385
3.7333333333333485,-0.38
3.7361111111111995,-0.37
3.738888888888937,-0.36
3.7416666666666742,-0.365
3.7444444444444116,-0.365
3.7472222222222626,-0.36
3.75,-0.39
3.7527777777777374,-0.385
3.7555555555555884,-0.4
3.7583333333333258,-0.395
3.761111111111063,-0.405
3.7638888888888005,-0.395
3.7666666666666515,-0.39
3.769444444444389,-0.385
3.772222222,-0.385
3.7749999999999773,-0.375
3.777777777777942,-0.37
3.7805555555555657,-0.385
3.783333333333303,-0.385
3.7861111111112677,-0.385
3.7888888888887777,-0.395
3.7916666666666288,-0.395
3.794444444444366,-0.395
3.797222222222217,-0.395
3.7999999999999545,-0.39
3.8027777777778056,-0.385
3.8055555555556566,-0.375
3.8083333333332803,-0.36
3.811111111111245,-0.365
3.813888888888755,-0.365
3.8166666666667197,-0.37
3.8194444444443434,-0.37
3.8222222222221944,-0.375
3.8250000000000455,-0.38
3.827777777777783,-0.385
3.830555555555634,-0.39
3.8333333333333712,-0.375
3.8361111111112223,-0.365
3.8388888888887323,-0.335
3.841666666666697,-0.315
3.8444444444444343,-0.285
3.847222222222058,-0.265
3.8500000000000227,-0.225
3.852777778,-0.18
3.855555555555611,-0.14
3.8583333333333485,-0.075
3.8611111111111995,-0.01
3.863888888888937,0.085
3.8666666666666742,0.205
3.8694444444444116,0.315
3.8722222222222626,0.47
3.875,0.645
3.8777777777777374,0.835
3.8805555555555884,1.02
3.8833333333333258,1.215
3.886111111111063,1.39
3.8888888888888005,1.535
3.8916666666666515,1.645
3.894444444444389,1.71
3.897222222,1.73
3.8999999999999773,1.725
3.902777777777942,1.685
3.9055555555555657,1.61
3.908333333333303,1.52
3.9111111111112677,1.385
3.9138888888887777,1.23
3.9166666666666288,1.02
3.919444444444366,0.77
3.922222222222217,0.495
3.9249999999999545,0.2
3.9277777777778056,-0.05
3.9305555555556566,-0.25
3.9333333333332803,-0.385
3.936111111111245,-0.465
3.938888888888755,-0.505
3.9416666666667197,-0.525
3.9444444444443434,-0.55
3.9472222222221944,-0.565
3.9500000000000455,-0.595
3.952777777777783,-0.615
3.955555555555634,-0.655
3.9583333333333712,-0.69
3.9611111111112223,-0.715
3.9638888888887323,-0.74
3.966666666666697,-0.765
3.9694444444444343,-0.785
3.972222222222058,-0.77
3.9750000000000227,-0.78
3.977777778,-0.785
3.980555555555611,-0.785
3.9833333333333485,-0.785
3.9861111111111995,-0.81
3.988888888888937,-0.81
3.9916666666666742,-0.825
3.9944444444444116,-0.825
3.9972222222222626,-0.835
4,-0.83
4.002777777777737,-0.84
4.005555555555702,-0.84
4.008333333333667,-0.855
4.011111111111177,-0.87
4.013888888888687,-0.885
4.0166666666666515,-0.905
4.019444444444389,-0.92
4.022222222222126,-0.94
4.025000000000091,-0.945
4.027777777778056,-0.945
4.030555555555566,-0.965
4.033333333333303,-0.96
4.036111111,-0.96
4.038888888888778,-0.96
4.0416666666667425,-0.965
4.044444444,-0.975
4.047222222222217,-0.99
4.0499999999999545,-1.01
4.052777777777692,-1.03
4.055555555555657,-1.045
4.058333333333394,-1.07
4.061111111111131,-1.08
4.063888888888869,-1.09
4.066666666666606,-1.105
4.069444444444343,-1.115
4.072222222222308,-1.125
4.0750000000000455,-1.135
4.077777777777783,-1.155
4.080555556,-1.17
4.0833333333332575,-1.195
4.086111111111222,-1.205
4.088888889,-1.23
4.091666666666697,-1.245
4.094444444444434,-1.245
4.097222222221944,-1.26
4.099999999999909,-1.255
4.102777777777874,-1.27
4.105555555555611,-1.275
4.1083333333333485,-1.265
4.111111111111313,-1.27
4.113888888888823,-1.27
4.116666666666333,-1.28
4.119444444444298,-1.285
4.122222222222263,-1.28
4.125,-1.29
4.127777777777737,-1.275
4.130555555555702,-1.26
4.133333333333667,-1.245
4.136111111111177,-1.23
4.138888888888687,-1.22
4.1416666666666515,-1.195
4.144444444444389,-1.18
4.147222222222126,-1.165
4.150000000000091,-1.145
4.152777777778056,-1.13
4.155555555555566,-1.11
4.158333333333303,-1.095
4.161111111,-1.055
4.163888888888778,-1.035
4.1666666666667425,-0.995
4.169444444,-0.96
4.172222222222217,-0.92
4.1749999999999545,-0.875
4.177777777777692,-0.845
4.180555555555657,-0.83
4.183333333333394,-0.79
4.186111111111131,-0.78
4.188888888888869,-0.76
4.191666666666606,-0.73
4.194444444444343,-0.72
4.197222222222308,-0.7
4.2000000000000455,-0.685
4.202777777777783,-0.66
4.205555556,-0.655
4.2083333333332575,-0.65
4.211111111111222,-0.64
4.213888889,-0.63
4.216666666666697,-0.635
4.219444444444434,-0.63
4.222222222221944,-0.635
4.224999999999909,-0.62
4.227777777777874,-0.615
4.230555555555611,-0.62
4.2333333333333485,-0.615
4.236111111111313,-0.605
4.238888888888823,-0.6
4.241666666666333,-0.585
4.244444444444298,-0.585
4.247222222222263,-0.6
4.25,-0.6
4.252777777777737,-0.605
4.255555555555702,-0.62
4.258333333333667,-0.61
4.261111111111177,-0.63
4.263888888888687,-0.62
4.2666666666666515,-0.61
4.269444444444389,-0.615
4.272222222222126,-0.6
4.275000000000091,-0.61
4.277777777778056,-0.615
4.280555555555566,-0.62
4.283333333333303,-0.625
4.286111111,-0.63
4.288888888888778,-0.62
4.2916666666667425,-0.63
4.294444444,-0.625
4.297222222222217,-0.625
4.2999999999999545,-0.625
4.302777777777692,-0.61
4.305555555555657,-0.6
4.308333333333394,-0.58
4.311111111111131,-0.59
4.313888888888869,-0.59
4.316666666666606,-0.605
4.319444444444343,-0.61
4.322222222222308,-0.62
4.3250000000000455,-0.65
4.327777777777783,-0.655
4.330555556,-0.665
4.3333333333332575,-0.66
4.336111111111222,-0.625
4.338888889,-0.595
4.341666666666697,-0.515
4.344444444444434,-0.425
4.347222222221944,-0.31
4.349999999999909,-0.175
4.352777777777874,-0.04
4.355555555555611,0.075
4.3583333333333485,0.16
4.361111111111313,0.235
4.363888888888823,0.285
4.366666666666333,0.28
4.369444444444298,0.215
4.372222222222263,0.095
4.375,-0.06
4.377777777777737,-0.23
4.380555555555702,-0.4
4.383333333333667,-0.53
4.386111111111177,-0.655
4.388888888888687,-0.765
4.3916666666666515,-0.885
4.394444444444389,-1
4.397222222222126,-1.1
4.400000000000091,-1.15
4.402777777778056,-1.17
4.405555555555566,-1.175
4.408333333333303,-1.155
4.411111111,-1.14
4.413888888888778,-1.105
4.4166666666667425,-1.095
4.419444444,-1.09
4.422222222222217,-1.09
4.4249999999999545,-1.09
4.427777777777692,-1.06
4.430555555555657,-1.025
4.433333333333394,-0.985
4.436111111111131,-0.94
4.438888888888869,-0.885
4.441666666666606,-0.845
4.444444444444343,-0.805
4.447222222222308,-0.775
4.4500000000000455,-0.75
4.452777777777783,-0.73
4.455555556,-0.715
4.4583333333332575,-0.695
4.461111111111222,-0.665
4.463888889,-0.645
4.466666666666697,-0.64
4.469444444444434,-0.635
4.472222222221944,-0.62
4.474999999999909,-0.62
4.477777777777874,-0.615
4.480555555555611,-0.625
4.4833333333333485,-0.62
4.486111111111313,-0.615
4.488888888888823,-0.615
4.491666666666333,-0.615
4.494444444444298,-0.605
4.497222222222263,-0.6
4.5,-0.59
4.502777777777737,-0.585
4.505555555555702,-0.58
4.508333333333667,-0.575
4.511111111111177,-0.58
4.513888888888687,-0.59
4.5166666666666515,-0.6
4.519444444444389,-0.61
4.522222222222126,-0.63
4.525000000000091,-0.635
4.527777777778056,-0.635
4.530555555555566,-0.64
4.533333333333303,-0.63
4.536111111,-0.64
4.538888888888778,-0.61
4.5416666666667425,-0.595
4.544444444,-0.575
4.547222222222217,-0.585
4.5499999999999545,-0.57
4.552777777777692,-0.555
4.555555555555657,-0.55
4.558333333333394,-0.54
4.561111111111131,-0.525
4.563888888888869,-0.515
4.566666666666606,-0.5
4.569444444444343,-0.47
4.572222222222308,-0.445
4.5750000000000455,-0.42
4.577777777777783,-0.4
4.580555556,-0.37
4.5833333333332575,-0.35
4.586111111111222,-0.325
4.588888889,-0.3
4.591666666666697,-0.275
4.594444444444434,-0.245
4.597222222221944,-0.2
4.599999999999909,-0.175
4.602777777777874,-0.135
4.605555555555611,-0.11
4.6083333333333485,-0.08
4.611111111111313,-0.055
4.613888888888823,-0.045
4.616666666666333,-0.02
4.619444444444298,-0.015
4.622222222222263,-0.005
4.625,-0.005
4.627777777777737,0.015
4.630555555555702,0.015
4.633333333333667,0.025
4.636111111111177,0.025
4.638888888888687,0.035
4.6416666666666515,0.035
4.644444444444389,0.03
4.647222222222126,0.015
4.650000000000091,-0.015
4.652777777778056,-0.03
4.655555555555566,-0.05
4.658333333333303,-0.07
4.661111111,-0.08
4.663888888888778,-0.095
4.6666666666667425,-0.12
4.669444444,-0.125
4.672222222222217,-0.145
4.6749999999999545,-0.155
4.677777777777692,-0.165
4.680555555555657,-0.195
4.683333333333394,-0.225
4.686111111111131,-0.245
4.688888888888869,-0.265
4.691666666666606,-0.29
4.694444444444343,-0.305
4.697222222222308,-0.32
4.7000000000000455,-0.34
4.702777777777783,-0.34
4.705555556,-0.34
4.7083333333332575,-0.345
4.711111111111222,-0.345
4.713888889,-0.355
4.716666666666697,-0.38
4.719444444444434,-0.395
4.722222222221944,-0.415
4.724999999999909,-0.42
4.727777777777874,-0.415
4.730555555555611,-0.42
4.7333333333333485,-0.42
4.736111111111313,-0.415
4.738888888888823,-0.415
4.741666666666333,-0.405
4.744444444444298,-0.405
4.747222222222263,-0.41
4.75,-0.415
4.752777777777737,-0.425
4.755555555555702,-0.44
4.758333333333667,-0.445
4.761111111111177,-0.435
4.763888888888687,-0.45
4.7666666666666515,-0.44
4.769444444444389,-0.42
4.772222222222126,-0.42
4.775000000000091,-0.41
4.777777777778056,-0.405
4.780555555555566,-0.405
4.783333333333303,-0.42
4.786111111,-0.42
4.788888888888778,-0.43
4.7916666666667425,-0.44
4.794444444,-0.43
4.797222222222217,-0.425
4.7999999999999545,-0.425
4.802777777777692,-0.42
4.805555555555657,-0.415
4.808333333333394,-0.41
4.811111111111131,-0.41
4.813888888888869,-0.405
4.816666666666606,-0.42
4.819444444444343,-0.425
4.822222222222308,-0.43
4.8250000000000455,-0.435
4.827777777777783,-0.45
4.830555556,-0.44
4.8333333333332575,-0.44
4.836111111111222,-0.435
4.838888889,-0.43
4.841666666666697,-0.42
4.844444444444434,-0.425
4.847222222221944,-0.43
4.849999999999909,-0.44
4.852777777777874,-0.44
4.855555555555611,-0.455
4.8583333333333485,-0.455
4.861111111111313,-0.455
4.863888888888823,-0.465
4.866666666666333,-0.455
4.869444444444298,-0.45
4.872222222222263,-0.435
4.875,-0.44
4.877777777777737,-0.435
4.880555555555702,-0.44
4.883333333333667,-0.455
4.886111111111177,-0.45
4.888888888888687,-0.46
4.8916666666666515,-0.465
4.894444444444389,-0.47
4.897222222222126,-0.46
4.900000000000091,-0.46
4.902777777778056,-0.46
4.905555555555566,-0.46
4.908333333333303,-0.44
4.911111111,-0.45
4.913888888888778,-0.45
4.9166666666667425,-0.45
4.919444444,-0.46
4.922222222222217,-0.47
4.9249999999999545,-0.47
4.927777777777692,-0.465
4.930555555555657,-0.47
4.933333333333394,-0.47
4.936111111111131,-0.475
4.938888888888869,-0.48
4.941666666666606,-0.465
4.944444444444343,-0.46
4.947222222222308,-0.465
4.9500000000000455,-0.475
4.952777777777783,-0.475
4.955555556,-0.48
4.9583333333332575,-0.48
4.961111111111222,-0.495
4.963888889,-0.485
4.966666666666697,-0.48
4.969444444444434,-0.475
4.972222222221944,-0.465
4.974999999999909,-0.465
4.977777777777874,-0.485
4.980555555555611,-0.475
4.9833333333333485,-0.485
4.986111111111313,-0.48
4.988888888888823,-0.48
4.991666666666333,-0.495
4.994444444444298,-0.495
4.997222222222263,-0.495
