Amplitude
-0.21229538509884968
-0.2436990127957844
-0.270979866189219
-0.2828463450291584
-0.278382457709531
-0.2780334721878732
-0.28759736441091993
-0.2957835534360252
-0.2882501225398864
-0.28727424101727717
-0.30353732468722683
-0.3284960977814552
-0.3414011979871986
-0.33493036769877055
-0.3191554869220448
-0.3129981625379763
-0.32073261670606545
-0.3335114618639574
-0.33974103308745845
-0.3366773489415913
-0.3435478580076745
-0.35760879717591354
-0.35139876594365227
-0.3548259900468915
-0.38559247860385526
-0.38419553863786804
-0.3698630705657174
-0.35724565352872173
-0.3643506204716297
-0.3844675889710135
-0.3895251793009579
-0.37525426306331516
-0.36820656755226155
-0.3720470063379694
-0.3767083842464467
-0.3760905030014531
-0.3665343663598871
-0.3568923575106846
-0.352354901420839
-0.35689171406960624
-0.35768877987618003
-0.35078154558870195
-0.34349617074756345
-0.3571959357441666
-0.3851695484096798
-0.40270132473298653
-0.3994178424367001
-0.3661661788029038
-0.33621012274750434
-0.32999672611791947
-0.3380674999870644
-0.35187928493777
-0.3592268917702146
-0.3613319007938968
-0.352702288608985
-0.3516481432854766
-0.36061123418757807
-0.3609773409256618
-0.34664354161417865
-0.32523884309667694
-0.3172087115683783
-0.3283509311131672
-0.3470691923426476
-0.35505359635704686
-0.3422333593382072
-0.33393580381620147
-0.3460282615576248
-0.35348689172265124
-0.35020748903860666
-0.34107140373109157
-0.3236361185109636
-0.3009518558060255
-0.29315755668913424
-0.3063548582756789
-0.3103316289229438
-0.28921806395661753
-0.27535913805772294
-0.2696685958562173
-0.2678724758260294
-0.2727154051758224
-0.2625294215862747
-0.2461622701985369
-0.23520811144168513
-0.24126111572013242
-0.25150290007857273
-0.2470119667224137
-0.23144848484016203
-0.22098411359782474
-0.2238564817830683
-0.24433623985168537
-0.2561783962841507
-0.2520577856501086
-0.23136279103071175
-0.21942025333620888
-0.22416316346827161
-0.23429972747904895
-0.22785777480013575
-0.2133809819039041
-0.19147907799280747
-0.1728321242442854
-0.16903580586619468
-0.18375188097890777
-0.1925678143813033
-0.17290218452724718
-0.1476421621407489
-0.14181119899652347
-0.15571520271436773
-0.1506001545274833
-0.1252465590884264
-0.1013219042086123
-0.09347526234963886
-0.08370409183770197
-0.06712781209937885
-0.050156862097602964
-0.04164314370193227
-0.052269707785690095
-0.08356509653486947
-0.08670712683106795
-0.06505569359077924
-0.02959982345500856
0.006840313204732524
0.03449591929747298
0.039936116579454124
0.03994039343660027
0.046100378740213215
0.06604047487852303
0.07076604693505169
0.0776661744130967
0.08856675432755207
0.11505855131984519
0.14920211727411398
0.1848887992194238
0.20685508908984138
0.21936740412846042
0.23462612306485509
0.2611696226331635
0.28525969982727434
0.3087210683099332
0.32300300951884925
0.3323713261468423
0.3389556513789086
0.3396978874394353
0.3730412607648833
0.42768834288062313
0.46701363354264663
0.47727840218577616
0.4673255416995274
0.4655280078995094
0.4792029288951008
0.496442559185681
0.505034034519889
0.5174822698813065
0.5386633121430636
0.5716223371762282
0.6038415889173899
0.6148693192681146
0.5964601712816668
0.5861424770825849
0.5881825650958813
0.6001334430580085
0.6174121656073996
0.6299431156068184
0.6416880719266367
0.6520316324821674
0.6682926669030871
0.6752086099239938
0.6590428853773413
0.6438986160963623
0.6550997732053373
0.6831826393616693
0.7049516597826087
0.7112487503129089
0.7075636182110266
0.7085409394006754
0.7138729487825448
0.7317965464331821
0.7345403575815244
0.7263747826676651
0.7298799291449121
0.7325431125370032
0.7368046328779155
0.7475463337002143
0.7504254458563664
0.7310994897431462
0.697807905746825
0.6938834980467239
0.6976608873825955
0.7042586282641276
0.7136780788146913
0.6963206405849426
0.6744647171345728
0.6487228369162509
0.6447306951209679
0.6328908181836661
0.605272163132303
0.5881215565796093
0.5796116300648797
0.5693708727506019
0.559844626629687
0.544323765176483
0.52677990195989
0.5072178402478633
0.4844219801261162
0.46022851103687595
0.44196666103753296
0.422013159035375
0.40861309890700015
0.3999415723181298
0.3923429027298939
0.3842976789615177
0.3715402309885943
0.3461431485448151
0.31208028593943304
0.2791236086177691
0.25704519671159143
0.25836364880931567
0.27271087009773576
0.26652690433989873
0.23951399677056792
0.2048013679416233
0.17490797348416678
0.14587432090906663
0.11618220217824117
0.10567442628999694
0.09757494860252082
0.08212633313727409
0.07032181367355182
0.0691875532871166
0.05126691803679633
0.023891140771116093
-0.0031673478442383685
-0.01708461529298224
-0.028533909870818545
-0.039033854897598926
-0.048577387297684634
-0.05044409540003621
-0.058359215021260936
-0.07201087978895204
-0.09535955916706412
-0.12656788069117603
-0.14548919465542617
-0.15089675490403534
-0.15285479737611543
-0.16447930400376043
-0.1830182658076328
-0.21060237591020567
-0.24173359218968773
-0.2584026284623081
-0.264571718403321
-0.278240534409958
-0.2920809190146456
-0.2847277037905343
-0.2705193295081435
-0.2616583621388623
-0.27034759588404966
-0.287429054793776
-0.2985573241616096
-0.29182848114935417
-0.29622989775826025
-0.2730042942380808
-0.2682283175777813
-0.2669474210956694
-0.2886900539823237
-0.2974462996473611
-0.31640696531651213
-0.32085341888732594
-0.33763881998320905
-0.34326562772745195
-0.3478038161269156
-0.343929626185723
-0.33530517822446565
-0.3423764543319809
-0.3694163216951046
-0.4127637716719123
-0.4364113428830226
-0.4220508900656188
-0.4053872806366521
-0.4056470864171018
-0.3971989626262289
-0.38858934552879126
-0.3749379301459683
-0.3626553937131816
-0.36242477472449947
-0.3785209659234827
-0.3926373783188609
-0.39287586412443576
-0.37649312414860475
-0.3611915154244716
-0.36345288588773533
-0.3848064950121167
-0.4005381916099026
-0.39600410789042895
-0.381278195393522
-0.3716221594187921
-0.3627677217787727
-0.3635684288566404
-0.3770799003134367
-0.40147529294729634
-0.4114307066024606
-0.3953543496572721
-0.37766300392710656
-0.37606001542148226
-0.3771227145380422
-0.3729212675363662
-0.3622392980277381
-0.36796783784525705
-0.38126156061618643
-0.39083386197751374
-0.3869238959962954
-0.375638955048916
-0.36522239152072467
-0.3691051832573553
-0.3683715974603004
-0.35387087247314747
-0.3539865134378621
-0.35834699798309033
-0.358411672848126
-0.36242344962673106
-0.359400255693671
-0.35819514572022715
-0.34080725260527633
-0.32158227175328485
-0.3157812702803762
-0.31944031123383676
-0.330426294109221
-0.3334842512154077
-0.33502526070694094
-0.33200041418519266
-0.3347876011514679
-0.3266056052770327
-0.3321744627490631
-0.3405107003297469
-0.34856480741472173
-0.3557284062331546
-0.3647497225675491
-0.3698324561667964
-0.3599925091955709
-0.3575077878525226
-0.3504784711114358
-0.36179252839392567
-0.3801602029834076
-0.3662171560184405
-0.33949425702315095
-0.32104803988912434
-0.32583177547797065
-0.3443860439634651
-0.3651152091042301
-0.3608605054567335
-0.34169222860438125
-0.3451447085911846
-0.3477207372884266
-0.340570545811659
-0.3261350787002691
-0.32424914007339084
-0.32056983744881473
-0.3251667589816336
-0.32369683193298404
-0.3152438135358909
-0.3040790514184708
-0.29264287274652717
-0.29314055996588745
-0.2933647532341681
-0.28415959842322885
-0.2643032656462193
-0.23409965307091724
-0.20209184848630604
-0.1923859052212393
-0.20314947314592477
-0.20905306015290603
-0.20704360979810166
-0.2059691622595403
-0.19362188575931352
-0.18312196852393223
-0.18301222174898193
-0.17803318300270038
-0.18161015124873994
-0.17421144551688328
-0.16773656893632008
-0.17225408282461888
-0.1783024956782633
-0.18526988265235772
-0.18003288856006475
-0.1656415043770712
-0.16986347138060487
-0.18659411090382255
-0.1978276431732911
-0.18128611972896028
-0.1494795428123752
-0.13109128218570812
-0.12581481928289145
-0.12968179427639168
-0.13445169478037383
-0.11876230123104192
-0.11312816388748467
-0.11632754477314984
-0.10242103480838437
-0.08452940182260084
-0.07028064808264341
-0.07249051291647213
-0.07132298741214563
-0.07165986163582759
-0.06159935319235149
-0.05121106766095165
-0.05270078495437983
-0.05782883113653733
-0.05805045193213194
-0.06526650040863395
-0.07367879342265728
-0.07077577003156589
-0.06571210765288983
-0.0655064644183439
-0.08022915120143771
-0.09157094479294933
-0.09342898973774542
-0.08824491242227812
-0.07907073484109912
-0.07292560299606889
-0.07652358626138377
-0.09108600514624914
-0.10532281598879015
-0.10428216762696536
-0.0830824724344733
-0.061254791540332136
-0.05131164653187972
-0.04715104616930547
-0.050605157469984036
-0.04092458851305239
-0.04649031836483901
-0.06577799185726076
-0.077733260942873
-0.07289781254382265
-0.0466959089579445
-0.022626329442535592
-0.023882752344100387
-0.03368332236063246
-0.032194663849009014
-0.03711777991226024
-0.037468946821534566
-0.03630171302250468
-0.025378852287324775
-0.010195247518700285
-0.0041799017310495965
-0.00458851960594014
-0.008981990721256976
-0.018277957857563212
-0.020882641578925262
-0.01618793787602209
0.0031277002911140623
0.022719650948890602
0.03098969908309802
0.02640981191532889
0.02026855687164927
0.017751361506509036
0.010311588218194933
0.0009985818224581256
-0.007138298729707836
-0.015627034040356744
-0.018671811529910882
-0.012612893620514229
0.012617786273175549
0.02039928224151663
0.010119228750716275
-0.007849042554612651
-0.029540457178871594
-0.04336096507518846
-0.032833951560511346
-0.017796449922810247
-0.010151350416000885
-0.0059333108661293555
-0.009721325867025257
-0.01449835127508474
-0.015383373083908775
-0.013598447385395463
-0.017079011697242737
-0.005380809133011288
0.010814468995613651
0.028148987534337342
0.027396826240212096
0.00855705521151568
-0.007925634103948748
-0.001301298933728996
0.0034065264173157553
-0.001126478981514841
-0.011544035388364515
-0.020522718071050463
-0.01585648423189919
1.3270474470952346e-05
0.0035894129791644597
-0.004212509807388832
-0.02491809971573654
-0.03960731978113472
-0.0357683232890829
-0.01828311087983608
0.0024735988715586547
-0.003097702396856183
-0.03743742514294695
-0.07155468192706829
-0.0825616179624313
-0.07045705524439252
-0.053854293104349
-0.04770463674892464
-0.05994066965368127
-0.056383181926856346
-0.06479976196736315
-0.08213702273243915
-0.10564663350279128
-0.11915324991253737
-0.12173928884063062
-0.1295758737653106
-0.10787279159322584
-0.10301154396414032
-0.11041230169552008
-0.11725590975537208
-0.11713143406347577
-0.11339289369420506
-0.1139715928807583
-0.1170337385049609
-0.11983000159746006
-0.1128975355076447
-0.11362726733879921
-0.12506768632327747
-0.1337887482958165
-0.15046778213009337
-0.16960874997828104
-0.17778149542336472
-0.17528790660453322
-0.16700720669755834
-0.1596495447664894
-0.15290644358521738
-0.15867570588527014
-0.17451274728479876
-0.18912343065329282
-0.20464054410601534
-0.2128215484959914
-0.2142734839269215
-0.1973971317067146
-0.1866018507122404
-0.17059365147503364
-0.16584789033931635
-0.17632853058427864
-0.19684487681650906
-0.20389686592950207
-0.20388990332833118
-0.1898025523118992
-0.19397872750173117
-0.2020733822358562
-0.20370860172605815
-0.18911687950763076
-0.17965683807974345
-0.1795984031850585
-0.19199098069517828
-0.22110471848329652
-0.2501540385035124
-0.25197814153779485
-0.23725584193899202
-0.23039815622275742
-0.2356758624649095
-0.24637421847106775
-0.24509812219985444
-0.24313738791209258
-0.2569696479545126
-0.2719466537425913
-0.28074407968756593
-0.28397183951947513
-0.29383597389396193
-0.3048435648752941
-0.31577405232702943
-0.32388124881682734
-0.31940051137571757
-0.30355301395765105
-0.28793543307556996
-0.2804827182607365
-0.28241651981655974
-0.27878531597560835
-0.2778296846816986
-0.28595941514327317
-0.29463174814074483
-0.2940834457281118
-0.30476197565092306
-0.2964588620529533
-0.29694562969306526
-0.2879152101516737
-0.28462795558959586
-0.2895277467884692
-0.30811016068902614
-0.32695115028533395
-0.33476288320345876
-0.3388722226449144
-0.3463009779524074
-0.35796791259924426
-0.37112999511577055
-0.37541534947695127
-0.3781512922051941
-0.37873112418774796
-0.38265135253242766
-0.38533835376406644
-0.3834391808456741
-0.3803143840401479
-0.37139045929695264
-0.36521568371386703
-0.3752208638740526
-0.39530675477864247
-0.3998440511297348
-0.39036242336301136
-0.37449466497062955
-0.36139932616933096
-0.35748850466638243
-0.36215563638494586
-0.3601465574514551
-0.35268552498221295
-0.3477101789885054
-0.3562096474328927
-0.36140366445854366
-0.3568872059301982
-0.34235828038944516
-0.3306365348880842
-0.32111457379626585
-0.31989832261558265
-0.32180274746623916
-0.3130982613628775
-0.29439750298612805
-0.27119545714778615
-0.250512718616043
-0.2555430284005703
-0.26584246426711095
-0.27317319364698933
-0.2567857376924872
-0.25238448253409856
-0.2581392696145663
-0.27008362050173496
-0.27753737465162226
-0.27470265682872286
-0.2692082733739499
-0.2799736084355191
-0.29997944770096296
-0.30481237596543914
-0.28806300487990905
-0.280550871903091
-0.27128873552058597
-0.2822460775428686
-0.30487641426034956
-0.3181215687363145
-0.3167912869112784
-0.3045446241339954
-0.290838375239336
-0.28360330496635716
-0.2816152217462981
-0.27632592385198285
-0.2646798036888232
-0.25338605224702365
-0.258918663896492
-0.2818832406063198
-0.3012190118194476
-0.3074609708016231
-0.29877283847491787
-0.29528945710903365
-0.29700511065818674
-0.3081861055763392
-0.3031931781670855
-0.29788827835010473
-0.2947062913210097
-0.30279542000852044
-0.31238399456418764
-0.3158363271176573
-0.30734756600752194
-0.2914881079080007
-0.28320360994485333
-0.3023221733406788
-0.3128280821520681
-0.3180708489849074
-0.31010914044606624
-0.2996161920129348
-0.29024662075038093
-0.292063354191092
-0.29743022921487555
-0.304509107407602
-0.3035278175239093
-0.31522997171632305
-0.32984354900407037
-0.34461524015627387
-0.3500783903975962
-0.3425644575158519
-0.3254236551632224
-0.31268685333960144
-0.3150283637376116
-0.32633903927655356
-0.3325758458677809
-0.3294609915214137
-0.32889024047379567
-0.3332997257033164
-0.3439052054880294
-0.3375101326065301
-0.3327247699043783
-0.3011654702941345
-0.28829692250434
-0.2993033863528047
-0.31129499014521905
-0.31755552898926664
-0.31594650308968136
-0.304634927278357
-0.28972226909476617
-0.28921150044101973
-0.28601290361945075
-0.28195689538727436
-0.2810103902164452
-0.2874458635572317
-0.28814224233777214
-0.2922553401069075
-0.28117208764341506
-0.2576408385407055
-0.23539602866694848
-0.23091893498711252
-0.24665403327802635
-0.2609388125233784
-0.2609607475364436
-0.2528274841213724
-0.22952533594337518
-0.2197444269453896
-0.20701204171298832
-0.19743750999907572
-0.1949944722195135
-0.1984693022409809
-0.19169607196208516
-0.18017540282494743
-0.16788251399776255
-0.15513111355866943
-0.14681263223216728
-0.14202086987468177
-0.1419860705893911
-0.1369531533680608
-0.12876332927870232
-0.12475094531299497
-0.11485668399263901
-0.09878653590355603
-0.0905891420657743
-0.08325754827245953
-0.08382226186973588
-0.08039426220700185
-0.06474661293709082
-0.044215573355046625
-0.03346133696939757
-0.03005544036204894
-0.025771558875804648
0.0001279702840922449
0.011926650630322265
0.0138835078118245
0.01697098004700759
0.028499595505079363
0.041132335593348376
0.05363534264387649
0.053178826098024976
0.05317657118010904
0.06399087333687928
0.0819469020670409
0.11038856611993117
0.13129891939042007
0.14466545535082873
0.14711912733264454
0.16763775681059626
0.21078682324238138
0.2594658990815529
0.2999315569013873
0.34102229024590797
0.3821170319362707
0.4311394455660308
0.4963187011649761
0.5703213215076528
0.651307043797869
0.7389617940397517
0.8415163184619623
0.9485872128837263
1.0500966820016886
1.1387138115998519
1.2098545828256906
1.2839583581343676
1.3900094076863494
1.5148808335110424
1.6317141962633237
1.735317755748459
1.8168384365754018
1.891836295237347
1.9490181257682364
1.9831944395386532
1.9983310428549674
1.9752023835402002
1.929981729040763
1.871519167808448
1.7863889109086548
1.6758133091658074
1.560850525113508
1.4372312732330055
1.3006868622277343
1.1475595066813251
0.9845673524089112
0.8095795710126593
0.63480829813502
0.46910951184583843
0.3100489390568404
0.16068569061441337
0.039337280865253545
-0.06009081296649356
-0.14216680378761457
-0.20016757780329258
-0.23225203681478668
-0.259465384307971
-0.2811861954082818
-0.3004544763543071
-0.3129860231992776
-0.30808791035148414
-0.29978453828151097
-0.2679223209281419
-0.24391886568619223
-0.21891068927628188
-0.2017330977815831
-0.18596323478386048
-0.1749429896593737
-0.16285927591534846
-0.1649546120893833
-0.18090828591757466
-0.2033807779599575
-0.21282611354732986
-0.21197464529702292
-0.2121010052465167
-0.21624048564106693
-0.23963459291607378
-0.25571825575877927
-0.25806675250953337
-0.2591751073250071
-0.2755054143211485
-0.29330926084528297
-0.3006692534955187
-0.2990950145582425
-0.3013871062508923
-0.3063090108929324
-0.32422035585460085
-0.34656122150789154
-0.36690800818323843
-0.3794476731985459
-0.38569121066966544
-0.39081178755068685
-0.40822212237737643
-0.43333099071626685
-0.45910626039523394
-0.479126482723399
-0.5037542407643972
-0.5290101377545195
-0.5460326865430907
-0.5584722843393406
-0.5547219276037934
-0.5463670289727734
-0.5446883306969684
-0.5664599041940205
-0.6083159616610005
-0.6360703674275403
-0.6439171370983432
-0.6370364896182159
-0.6349515849868811
-0.6407076595409276
-0.65185769061835
-0.6586314596826964
-0.6628553010510434
-0.6813088346627378
-0.7063596960058415
-0.7297657963079293
-0.743895952172474
-0.7444762999806973
-0.7312006091905884
-0.7263448668296915
-0.737232944296166
-0.7373168496809738
-0.7253772110291574
-0.7020261693747786
-0.6852703867819897
-0.6735870226277844
-0.6886457266642992
-0.6865078969731001
-0.6671780883988542
-0.6428676569294175
-0.6312812900317079
-0.6226600207724191
-0.6099917724403314
-0.5929783870103293
-0.5746788811476681
-0.5627300588658511
-0.5708722806881756
-0.5792790161400948
-0.576363356293869
-0.5661017671466257
-0.5564380988220451
-0.5394483510918271
-0.5313162410297628
-0.5283905523928751
-0.5236636015276812
-0.5162310883811143
-0.508545661006944
-0.5036704798472404
-0.49307290999737036
-0.479816443419713
-0.4605564050091986
-0.428286345208451
-0.4052949910494325
-0.3943410794361061
-0.3954369790274609
-0.3872340821486047
-0.37218604245081754
-0.351831024062372
-0.335030923821231
-0.32607022149717185
-0.3106187302431077
-0.2777028918063012
-0.2419822292929735
-0.22757599871949158
-0.22351022553196145
-0.22552421676076082
-0.21623532821508207
-0.19779076306975646
-0.17508391179313137
-0.1600265364668546
-0.14957744035598386
-0.1394745254111808
-0.12515024993465784
-0.10356255845074698
-0.07166908362015825
-0.05114486434413694
-0.04047266155425034
-0.02348734866546042
-0.02186293331437092
-0.012720117017983175
-0.003389790994637437
0.0058161433780709515
0.009398493970779886
0.031153541288901018
0.06192098254456694
0.09376153611886834
0.10622487165673533
0.1133438133090774
0.11786076669027655
0.12953714770720712
0.14074080868973562
0.14322967971406322
0.14768182348204492
0.1400579580872501
0.14843086940951336
0.17005284528731993
0.19241151293246836
0.19841750346995643
0.1935634309603384
0.19127634033690288
0.20742486932321852
0.2310241515158371
0.24742774964318007
0.25205971637428437
0.25346615408348233
0.2705687880969989
0.28872232336513026
0.3060983188013536
0.3199531014464649
0.32998448094452326
0.34596066381728185
0.3681901805124961
0.3930146989284526
0.41219869454730906
0.4236099351040663
0.42481116432810917
0.43777781543436656
0.4554954925787548
0.4721705129633011
0.48200926184307824
0.47982849047163745
0.475397686106053
0.47512962640884715
0.48421646341871943
0.49900077869126847
0.5091116676279401
0.5044833385360394
0.5180770992064803
0.540132181152571
0.564854769870246
0.5565455463117475
0.544503548578299
0.5366666834343987
0.5443294430615704
0.5601715774636797
0.5738210975913849
0.5788728786676332
0.5911980788767823
0.6083582275775897
0.6230321307600406
0.6330860484525422
0.6409633723578371
0.6286617317197271
0.6209005179782426
0.6240894476980914
0.6479947155085934
0.6624066735947034
0.6712930169989318
0.6700767789845122
0.6691334300278237
0.6641906324743264
0.6717264702080606
0.6786185183038719
0.6815091173244898
0.6962652471332547
0.7158668421466384
0.7299368528722485
0.7351165935471434
0.7347605900867699
0.7313076570479725
0.7256705899213962
0.7236444727378865
0.7313293287715656
0.7362103856054594
0.7321809713228378
0.728697239238835
0.7260604489485076
0.7242665351278462
0.727278319569192
0.7115943365176127
0.6814822908089234
0.6561624707194839
0.6569911612695037
0.6684005425363966
0.6806207061452364
0.669844455143843
0.6360668066650524
0.622309908355537
0.6136160356071608
0.6270689686066643
0.6263500048865683
0.6239656229010003
0.6174696528577115
0.6105191369450651
0.6055505740617315
0.5992025789140689
0.5865880985594359
0.5689233575481757
0.561461960064611
0.5587069900401057
0.5566874991892641
0.5477708507358207
0.5243246203456561
0.4976363545032654
0.47044944079513035
0.45435707968776085
0.444779411166863
0.4316440281219501
0.4137283750690546
0.393166931171476
0.3855214076151698
0.3743123419751776
0.3564875243926887
0.328995091970503
0.3009898235544185
0.2791856040546132
0.26388838846357116
0.2596767085758295
0.26105929211775236
0.24759255288952856
0.21775303887246725
0.18344460636723875
0.16511590757752165
0.15239511869532077
0.13521597012042846
0.12090654661262973
0.10825092755743022
0.1076295568750374
0.09768692359043174
0.07446185974808985
0.04314829210975351
0.011381778735397498
-0.0009954689051213943
-0.008623638549627647
-0.0038660947696566457
-0.002582961848679664
-0.02551654760134689
-0.04763526664640001
-0.06648885530284965
-0.07352361168696908
-0.08429296767097018
-0.09604065847138285
-0.10692563845307172
-0.11266536808345942
-0.1178266450321277
-0.13399467819518515
-0.15902241864959418
-0.180692463646796
-0.1962471332445637
-0.2096420750489849
-0.21811936895467549
-0.22502414771279297
-0.2327860027409199
-0.2633645343040825
-0.27677241190871055
-0.29039184355488623
-0.2956666936571874
-0.30143482084444084
-0.32782495661926164
-0.35071812483244635
-0.36186362328791616
-0.3652171597426473
-0.36626037325976685
-0.3805452562793736
-0.39890626039446014
-0.40882131862107296
-0.4188244389843853
-0.4218868666289915
-0.43142564870818945
-0.4510930960572954
-0.4714200741674437
-0.4817171514911976
-0.4831963758645904
-0.49354865001417464
-0.5219208623490132
-0.5499961602425497
-0.5625096819088263
-0.5554878151911073
-0.5423513555188093
-0.5368267192387428
-0.558133628522032
-0.5772774643364501
-0.5933385669782666
-0.6002101167261983
-0.5960580154027254
-0.5906446668956228
-0.5894608128573747
-0.5921997537416086
-0.5967243976355048
-0.5874712931116967
-0.5891582924076559
-0.593851993836435
-0.6006381736713862
-0.6104341150336879
-0.610730749552964
-0.6039722712414204
-0.6026736192838612
-0.6123316735033645
-0.6112848771831779
-0.5961816473349797
-0.5810648961921908
-0.5662459932020706
-0.5721772001797653
-0.5894058875414396
-0.5883395520777341
-0.5653245352783939
-0.5380686527864775
-0.5172615647265053
-0.5096263321549207
-0.505102800488975
-0.4939363833323633
-0.46942445911690317
-0.4486670391211715
-0.4396097752548283
-0.43372016818706877
-0.42429697585609916
-0.40891144919090994
-0.39093309572615637
-0.3734265137209661
-0.36311841186867105
-0.3591067706988284
-0.34614736085250847
-0.33066226276901595
-0.3193788406845149
-0.32238128878136707
-0.32442583284503634
-0.31881314866222427
-0.3046419215315088
-0.2858933485851128
-0.2671589123220446
-0.25730224017369013
-0.25694763483461397
-0.24749439045456134
-0.23750065427954697
-0.23155737087023795
-0.23181404224163957
-0.23126524507982066
-0.21924343453394166
-0.1948458344505685
-0.1535074983230794
-0.13918315925324543
-0.14028861660785932
-0.14218774425100503
-0.13573686894831716
-0.11148676311369536
-0.08806223973566012
-0.07798453109405318
-0.08004234084093878
-0.07471446847797965
-0.06658663672265565
-0.054140916672741166
-0.04196199859095429
-0.045924849080780476
-0.05627068175153501
-0.05164417396164312
-0.03815357141232861
-0.022822005303571414
-0.022131883533513756
-0.03883293881185782
-0.05889065021441839
-0.067354409571016
-0.06208958894080399
-0.049200179921797794
-0.041808162874985094
-0.03167389047612129
-0.028256203939395628
-0.025450304496451883
-0.028441585806145767
-0.03570136565034113
-0.04356424837210547
-0.05690863162805928
-0.05711521249511067
-0.05424886978818016
-0.03274070011452462
-0.023710274782094587
-0.02928667720072259
-0.04213857403491338
-0.05615472991040663
-0.06888527996034757
-0.07360766009134959
-0.08526498254986001
-0.09469248080298037
-0.09852293001634518
-0.0824030235629546
-0.06981853890932507
-0.07998267184456725
-0.1012873864325987
-0.11663148220099172
-0.11959394733511558
-0.10649989719105728
-0.09625581458932675
-0.09739260267420966
-0.09952121074106643
-0.09957617628300602
-0.09906923761517214
-0.10439451839772908
-0.11492742620794674
-0.12119373749121018
-0.1240945264506605
-0.11964833544087726
-0.10845107506238962
-0.10483076711547963
-0.11670720054449635
-0.14070944508435282
-0.15607273613394976
-0.16095220410078287
-0.1519773724836275
-0.1520214862813801
-0.15618872224653296
-0.16965370265806456
-0.18080769156731685
-0.19207949299618887
-0.19338680325030783
-0.19570352233361965
-0.21397097681243485
-0.22925845536441494
-0.2333161756738453
-0.22979593438450674
-0.23303049896372052
-0.2503345122643819
-0.27254463937733286
-0.27157832811369664
-0.2636013570219863
-0.25745629174939416
-0.25588312832492144
-0.26467402141308227
-0.2645988384331235
-0.2645025160221737
-0.2622449542488282
-0.2691135980841822
-0.28022320107753895
-0.28611180387327484
-0.27426652535875085
-0.25628255367713204
-0.2236153615095268
-0.21318949624629013
-0.2320247628653864
-0.2584568516988469
-0.2641086515527756
-0.2550864624052786
-0.2423797466879048
-0.2385043947469309
-0.23461593110551857
-0.23255100758865319
-0.22682312168517244
-0.22171140667119296
-0.21813886214543374
-0.224657998755798
-0.2342588803586469
-0.22833615198097293
-0.21178209664192624
-0.19467718887093424
-0.18191473329869176
-0.17899883156643828
-0.1874670050241501
-0.1951251449072746
-0.1742165477376313
-0.16778136800145
-0.14745336028718034
-0.13125051758039738
-0.12193330121517779
-0.11341291599292064
-0.10906071382509278
-0.10828125265075648
-0.10681742691377802
-0.09736075478993843
-0.08389373707719387
-0.061854614319968144
-0.04804274010292304
-0.040337808285282356
-0.039060825593712045
-0.02500276798615952
-0.009470325784429539
0.0011123548329064381
0.0055088573287439425
0.011332408890821587
0.017651950571919373
0.031165494346245017
0.040566949513503966
0.04187419380313952
0.04239614317101694
0.04059240583491762
0.04957040911724182
0.06473876621181272
0.08425283034072839
0.09436717534608924
0.09720492027972487
0.09000706547915069
0.08527288677727862
0.07841329808971224
0.08681098765109169
0.09519730650290807
0.09990007459323724
0.1128106413489855
0.13666617261525388
0.16810123778087324
0.1970375100018576
0.215838494359092
0.23609318383601277
0.2754943129157127
0.3230504519894226
0.37784097521211163
0.438945882261361
0.504835490771646
0.5755065420042624
0.6582801912138269
0.7592576105066281
0.8564661611614631
0.9462432821936682
1.027978632241386
1.1263905604577984
1.2387339158762556
1.344565072584446
1.4374782689797938
1.5128993154378558
1.5903620594850718
1.6634626039166414
1.724271869884643
1.7694387295743417
1.8026312519778807
1.816227261059208
1.8120650089016932
1.775809960206483
1.7120478499066247
1.6241442946749096
1.513634461564612
1.4134851801486294
1.3139417349969793
1.212573619886929
1.102983702977767
0.9497853193179879
0.7664173242951641
0.5873747705686945
0.4202992121922407
0.2725273543115602
0.13949505794409897
0.020300331257626716
-0.1048783239745688
-0.1872018329092767
-0.263274935904712
-0.3343039794804717
-0.4033261141894985
-0.452932847171332
-0.48249924015265777
-0.47370117579435855
-0.45826027121987534
-0.4364669421862104
-0.4415685876395176
-0.443950267205239
-0.45153142969893134
-0.4606356349375666
-0.46636592062229054
-0.4555862109531963
-0.44811755545945764
-0.4430304918695313
-0.43024103984701345
-0.41980580922705363
-0.4187300768503611
-0.4324935924100004
-0.4540649402519219
-0.4672582868181308
-0.4708408139753501
-0.46235940701200173
-0.453398528919915
-0.4454728207571586
-0.4428437170510496
-0.437871916316072
-0.43176808078838014
-0.4181143622452302
-0.41978842920504217
-0.4126741883523447
-0.4129367406078697
-0.4114136011278787
-0.40474073677884614
-0.3999299300827512
-0.41833582788266
-0.42058728565047276
-0.4130872186049074
-0.4083421741665652
-0.39780334683985513
-0.40801549570420276
-0.42371734096384744
-0.43483576486317344
-0.43587549534328796
-0.43141193189773186
-0.42174875538795686
-0.4291614387107376
-0.4328987669722033
-0.42868847643525
-0.4128690751248503
-0.40771787868234705
-0.41903415682515194
-0.4401061667585022
-0.4443873710957679
-0.43432157177863295
-0.41632001159963244
-0.41235733380774775
-0.4178598816734717
-0.427338886109911
-0.4328646658893357
-0.4292542848001767
-0.4207849941305493
-0.40807245960054195
-0.40760080360246803
-0.42914095958381093
-0.42601003925301545
-0.4119465066667294
-0.3875672867941521
-0.3803433359101818
-0.3802114645197799
-0.38717883641190837
-0.3783659784879816
-0.3687330374438399
-0.3537102171258035
-0.3531403917176037
-0.3496373430729036
-0.33954698872547723
-0.331421579253738
-0.3124523944842874
-0.29943097213797304
-0.30579211887752517
-0.30560535011402745
-0.2967424058439562
-0.27615950596074307
-0.26553053671072213
-0.2550981198033992
-0.2506678007015007
-0.250416091546845
-0.23787184387764726
-0.2298259099654877
-0.2326936579459567
-0.22756226020288076
-0.2144384706194812
-0.2073661003576051
-0.210013436307274
-0.22055574717101648
-0.2307598042635265
-0.2345282748347594
-0.22057594398343044
-0.20447121039300792
-0.17950577930178443
-0.17009716058430016
-0.1741139627918332
-0.1775234338697143
-0.18032981736324116
-0.1697205213628538
-0.14905604769683303
-0.13298747752010895
-0.1294521998946069
-0.12136448390055739
-0.10384465380340335
-0.07872626305197665
-0.04296012580543076
-0.03560852303091049
-0.039279445833427906
-0.043599289181469617
-0.022936385388185727
0.007144915624728203
0.01765354057323202
0.03147531673367329
0.03731864604381163
0.050135613601822115
0.06656903410043387
0.0719710572198331
0.06390025907648043
0.06982074737507984
0.07996757690771474
0.0949512554137512
0.11233081801427484
0.11929004455980562
0.11369329230798798
0.11812271387648526
0.13685108693168443
0.15980884582129504
0.17051815619819197
0.1729467333105666
0.17350355840203008
0.18286981031392838
0.19067081030952934
0.20087424106282242
0.20157957728765608
0.2083503911461568
0.2242387543175453
0.2504657282141468
0.28336978247271566
0.3107448994559465
0.32862420855247687
0.32510664801452266
0.3175861294896334
0.31399657115570545
0.33325741956314936
0.3491247258163514
0.36678558508812353
0.38623927180404133
0.4041281770159039
0.42075641798532154
0.42696807605130493
0.4178792648108721
0.40874629899536713
0.4163511053421132
0.43641959106519657
0.45918465745307613
0.480677013924982
0.4911292060393454
0.48718190231597336
0.4837850245549822
0.5013811491778811
0.5118926931687843
0.5339309499161912
0.545826303604677
0.5576453224855795
0.5770131625106267
0.5984330725910955
0.6099998583522271
0.6080474325357423
0.6032519656152063
0.609341079085821
0.6238689532448463
0.6355401080640724
0.6370260133741121
0.6441899998062639
0.6283423807523449
0.6242660965781409
0.6450778795388096
0.6617827361345608
0.6688827477939588
0.6718656399625275
0.6640128510282671
0.6822433048980909
0.6816938331805708
0.6852461950657656
0.6840458581280155
0.6671022562217895
0.6579076620621883
0.6802595996919225
0.7115718135833701
0.7268169130465705
0.7247699015506657
0.7145812756959049
0.7142512531537291
0.701499484132098
0.6934110824613625
0.6744195499610987
0.6732063926494708
0.682749958513658
0.6966391513696646
0.7066321855631704
0.6928915685402309
0.6761659856533445
0.6646929657193726
0.6630484487517876
0.6748932100645759
0.6785602969602039
0.6706925106265137
0.6488484562561595
0.6353048086023786
0.6267053880043523
0.627018139322914
0.6118317501104039
0.5948799153194778
0.5779955677278363
0.566673896156374
0.5548144901909566
0.540894671206015
0.5151528928038576
0.4855270992781308
0.46361749586267303
0.45003900387571844
0.4353367300201259
0.42195727864436516
0.39434334669543997
0.3698949641971348
0.3358019576142871
0.3146527322327646
0.28845013340346953
0.2547603555331345
0.22335620490514504
0.20767269009924125
0.20222538250210625
0.19481669187434356
0.18240402708599973
0.15218004039199673
0.11727600195737066
0.08472028512468051
0.06856011014362554
0.06148191410269684
0.05281560799913797
0.02945003254094194
0.008484757660140724
-0.007017721744717936
-0.025895902806979055
-0.059124263201777306
-0.08594083471266527
-0.10511362364458308
-0.12273434310653991
-0.1320780595072696
-0.15022207028441892
-0.18051159293264557
-0.2055411697774601
-0.22774058918772297
-0.2464881184264597
-0.2629930377244435
-0.27297188810857437
-0.2922816920228864
-0.3099257707479181
-0.32070557938953786
-0.3334599692227945
-0.3274277333163248
-0.3340297429957497
-0.3587487343069541
-0.38204479753748577
-0.3987206680181302
-0.407546400101471
-0.4185831557419854
-0.43884083452570183
-0.4643440034600376
-0.47524939777410846
-0.48161950902203765
-0.4926017264320277
-0.5118509930203702
-0.540581389928627
-0.5687165909757427
-0.572448616754267
-0.564588775947379
-0.5686293168821601
-0.5882277209415894
-0.6044602963437196
-0.6222060731845456
-0.6335279512073415
-0.6274377343995932
-0.6222427942409658
-0.613059042701313
-0.6059885366145044
-0.6013358360932942
-0.6021524059630383
-0.5992839152605337
-0.5988343804779215
-0.5998896914590386
-0.5969588659983024
-0.589128760945748
-0.5828104821188158
-0.5810588784421205
-0.5844880071116146
-0.5876092405302109
-0.5815776726420867
-0.5752479537625784
-0.5634379365880247
-0.5452380949548594
-0.5407951560157684
-0.5418766287972446
-0.5350627351134091
-0.5353136830512417
-0.5356187218707436
-0.5341551138388572
-0.5333726470740602
-0.5287028044777868
-0.5061174896098708
-0.48912321128190744
-0.47895026306537136
-0.4756085486515106
-0.4656812767810677
-0.45741801494953593
-0.4453364397366008
-0.4340245750727079
-0.42715511445582927
-0.4180255287164746
-0.40817263193958175
-0.4015745747650916
-0.3912239086866641
-0.38109888037866574
-0.37487259600936795
-0.3661479713604217
-0.350358840087728
-0.3320937047565094
-0.316856473079924
-0.30801486600749184
-0.30008694018346704
-0.2964401831629251
-0.2897614359277639
-0.2815869317268536
-0.27986102009291325
-0.2705565330476984
-0.25978645480885343
-0.24511913183711545
-0.22992064242336338
-0.2123691229204029
-0.1976610384463383
-0.20167305387401632
-0.2137328466077591
-0.20790990786526423
-0.1829911173561909
-0.16980450304008893
-0.16683107002796616
-0.16461736267172936
-0.16500035583392142
-0.15822065948824213
-0.14275772601768127
-0.134789715092412
-0.13279525751972157
-0.11785860724389613
-0.09547616746783652
-0.08029862953629642
-0.07965248412187928
-0.09537096269657505
-0.11769089387929839
-0.11396188906167878
-0.09913764675046524
-0.08023735242936093
-0.06733133932819517
-0.07079467807917345
-0.07292756616746025
-0.07555985008932077
-0.08418285994021996
-0.09726891650125334
-0.11176416841865254
-0.11362872955020717
-0.10194410424979164
-0.08677709800242266
-0.07727869980443197
-0.07130875103082221
-0.07679695919831524
-0.09129738201311058
-0.09893686992281246
-0.10489783943091896
-0.08903440063636306
-0.08033071903554699
-0.07359312818101496
-0.06576384790401754
-0.05866741578254615
-0.04710957548308814
-0.03657640954619664
-0.04414982887252437
-0.057921689236774564
-0.0690353111071135
-0.06436172649912467
-0.05121742731019655
-0.04393746922607473
-0.037631975098927115
-0.03656576921536577
-0.03279739508135465
-0.025404034837875313
-0.027500142287823107
-0.03602690270512372
-0.04731526579862611
-0.05311892041934675
-0.04824324087585918
-0.044277376011156847
-0.05433640806943216
-0.08299118277947021
-0.09605776667500156
-0.09261455114615212
-0.0729607657749945
-0.05478982173346518
-0.05640568173274505
-0.07627734346320736
-0.08602023722810903
-0.0935637687473583
-0.0973777565713151
-0.10173029993624799
-0.10631244475322993
-0.1031866205506686
-0.09723217761607346
-0.09058237891258007
-0.07896252023690874
-0.07915407942946265
-0.0862727188548188
-0.09512928975493196
-0.0947370059991581
-0.08692603226715695
-0.07169594134579167
-0.0701025007160188
-0.07878925532131566
-0.08677116926111819
-0.08580996632906461
-0.08414619839326595
-0.08727434007163762
-0.09367058319549652
-0.09845471648826237
-0.09064370414563191
-0.07725909333142829
-0.06928977639406052
-0.0795558813979844
-0.09860134668415964
-0.10873113920332157
-0.10903412977008894
-0.10012522306867826
-0.09574131674547352
-0.10443185861547037
-0.11552160347978314
-0.11619939931031277
-0.10494508706003493
-0.10098935697927057
-0.10525361670879987
-0.10706343237229744
-0.10886624151738425
-0.1015136064838764
-0.09264081263454875
-0.08957805012302503
-0.09751945327224375
-0.10029818192120314
-0.10066714807886974
-0.09588642546304538
-0.09328624645364868
-0.1008071122899384
-0.10777487435215732
-0.10961844601582012
-0.1072594707247168
-0.08758224660034256
-0.0844651404653124
-0.0979139246460569
-0.11359181840894471
-0.11777217242889122
-0.10893442495418935
-0.09806924365233054
-0.09647222455117781
-0.10750463453300409
-0.11835415439007979
-0.12322680953773256
-0.12243148603789065
-0.11353036122952015
-0.10812253614916191
-0.11048302417986432
-0.10230488356625426
-0.09488108216417807
-0.09980940235214404
-0.11129331868667672
-0.12628236373199042
-0.13074005043722126
-0.13626272611544002
-0.1251512805285788
-0.11571477430938826
-0.11680202068733254
-0.1238345413379489
-0.12613033792378645
-0.12826489373386946
-0.12352250276821333
-0.12319135928460703
-0.1309303602001958
-0.13605565207907577
-0.13734289462416602
-0.1314312949818855
-0.12930210128261696
-0.1419362243077541
-0.1534604166236924
-0.1663105413590177
-0.1673591384170819
-0.1584311513917442
-0.15081111085982116
-0.16036063273685305
-0.16937378735991762
-0.1860827591645157
-0.18850894492582698
-0.18976660069349785
-0.18832224153597488
-0.19790005954547518
-0.20872698228199707
-0.21560714885326843
-0.20541048470177736
-0.2129164797270038
-0.22346907449195175
-0.23919578233199368
-0.250933250556967
-0.25348513802883565
-0.2447066636623349
-0.24717078460659445
-0.25995338581309235
-0.2656519148767544
-0.27890539008621057
-0.2926867611905922
-0.2993587732782082
-0.30806794464463516
-0.32124748557918203
-0.3147821027896055
-0.3106354217959525
-0.302696816994422
-0.31109940399964814
-0.3263762982794356
-0.3451640201114252
-0.357691068400434
-0.36730799532557634
-0.37492440747060657
-0.37900898128312904
-0.3823029353022262
-0.3796137580189758
-0.3724627647246508
-0.379765610563173
-0.3923638860905436
-0.40933882979337827
-0.4282463092007844
-0.4286383436782233
-0.4193624718993175
-0.4156749725168715
-0.41879534112461586
-0.4345208822029181
-0.44789866961717567
-0.4473329653704226
-0.4337399366953265
-0.4239043861534327
-0.42637233666232727
-0.43260147327604953
-0.4252003846510879
-0.4166835190581807
-0.39850993550283115
-0.390213600950082
-0.40034326844759827
-0.39991379761421036
-0.3828272635529558
-0.3567182332069709
-0.3371557694422193
-0.32994430507803085
-0.32410501642462963
-0.31445744001782616
-0.30039883028652375
-0.284683516342451
-0.27922087250715266
-0.27516990077580666
-0.2636899003800277
-0.24631579329693787
-0.23343231996097247
-0.227185219345081
-0.2217863662918653
-0.22945210934601626
-0.22669559033295722
-0.2351933691942617
-0.21833712617273748
-0.20299134465885002
-0.19038739891452922
-0.17901031770251793
-0.17894114727631885
-0.17951026928912103
-0.17920277834159373
-0.18260688656828972
-0.1885127706335587
-0.18014751880301813
-0.16667648024876103
-0.1487204826160035
-0.13300335183737225
-0.13174157434509481
-0.13701107274354593
-0.13020705471345134
-0.1119493917144271
-0.09292788212947903
-0.09207128660394949
-0.09565624792625363
-0.0966725434697184
-0.08810960768589113
-0.08035047056088788
-0.07584369493017182
-0.06910335846921756
-0.06227205141257127
-0.047421745092579425
-0.03554370619210757
-0.026948237951141853
-0.02286063835386483
-0.03396558771946941
-0.0468398497688687
-0.04317716169305534
-0.037932868942013746
-0.035686443301096535
-0.03918587573376673
-0.03958264099066552
-0.0353514360176833
-0.03442627594493464
-0.02887244721269322
-0.03333630747027871
-0.04873158346206439
-0.06376515744700953
-0.06409178371782104
-0.05947307852268666
-0.04929476568899334
-0.0430122115122859
-0.05984527423186076
-0.07842738111399519
-0.09448023990550583
-0.09457033355998984
-0.09913609049940093
-0.09657395132537541
-0.09725119890995264
-0.09505617131046153
-0.0884541211377193
-0.09299867557500878
-0.1147831814230642
-0.12663846550076308
-0.12611271375317146
-0.11166923344795956
-0.10679388969302411
-0.10964419670368075
-0.12997335642171576
-0.1586145663819377
-0.16992230108211637
-0.17151295313689877
-0.1645944283068404
-0.16746327231901054
-0.16637439503551743
-0.1640610849282672
-0.17088547859020142
-0.18012085843468456
-0.19785708154776382
-0.21828287781144687
-0.23100964952604916
-0.2354138856869004
-0.23575467544663553
-0.2274416640063504
-0.22297343867072666
-0.21745479786181007
-0.21850217981060835
-0.21359187399936702
-0.21735940711866772
-0.231318824873786
-0.25362774691071927
-0.27115330618862615
-0.27198361723589143
-0.26617848699872804
-0.25098152263931806
-0.258729827870916
-0.27324096431345035
-0.2951166041257519
-0.3032927487531593
-0.3044752076727393
-0.29560528674184644
-0.29559614994744166
-0.3178686918679112
-0.32030577952220635
-0.3251790289661954
-0.31844695700598197
-0.3156689388793364
-0.3147058598841661
-0.30884188265525986
-0.3087557707127613
-0.29400090771827025
-0.2780037774492251
-0.271445109541477
-0.2883630257444321
-0.3016000969622434
-0.3074966607835576
-0.30361434822859373
-0.2899567101600603
-0.2720207852872169
-0.2669002383903179
-0.26849743831701267
-0.2759030659336861
-0.2671525898524943
-0.2648350447975676
-0.2604140454930356
-0.2645787046921047
-0.2596391029132185
-0.24865657539515143
-0.23377753769024395
-0.22813459725581195
-0.21648126172632412
-0.20889957865870662
-0.2066225133184056
-0.20081329829606806
-0.184466539860673
-0.16766605210286228
-0.15897024589001968
-0.14588204552162848
-0.13390897854160608
-0.11696290473356814
-0.12069230470556795
-0.10696806189922382
-0.09930302492634123
-0.10229048913615489
-0.10526605276540635
-0.10397374489204439
-0.09293706608220785
-0.08437870132704013
-0.07923055928215471
-0.08178128465187258
-0.07801006892510619
-0.07983440676338746
-0.08116743435600864
-0.07195512749757413
-0.06014758587674411
-0.05369473015620682
-0.0529173426347174
-0.049896722836896876
-0.04922534442008676
-0.03443953878586645
-0.01837039709359999
0.0050710885156544615
0.02732676527058891
0.042280147317115054
0.05693694224806559
0.07586206142693311
0.11002920194008904
0.14905156894131708
0.1987162284237313
0.23917759846033246
0.2865992152750227
0.3339532644902951
0.40320247317918867
0.4741985097703394
0.5429670168859629
0.6311674980143595
0.7290289429429533
0.8301377558550901
0.9299119805731401
1.0155311241160299
1.09980860937276
1.1836574519317755
1.2829440954435496
1.3772220136835407
1.4793075449770687
1.5541080901982571
1.6174930313742806
1.6603095985423988
1.6898842402488217
1.7016430039510166
1.6885714023772973
1.6451814497123478
1.5711735392738224
1.4863891346225397
1.3993795716541442
1.310457618017444
1.2040685308059007
1.0899862579571535
0.966084249365527
0.8305417260768172
0.6992376199895134
0.5538738380512863
0.4014808873037036
0.23993509487211356
0.09091555843387608
-0.030611592685919675
-0.13714390831957357
-0.22286906910978782
-0.2929599993139543
-0.35838722172678655
-0.41455788402384647
-0.46084584463096345
-0.5033381155917003
-0.5362203050366435
-0.5478797897426362
-0.5334171883668417
-0.5141764496078405
-0.4999053953311158
-0.5030981375789739
-0.5252630373928262
-0.5343411062104735
-0.5342818683916103
-0.5314761050116297
-0.5341455704097302
-0.5273201361146397
-0.5289867380411586
-0.5290579755397048
-0.522939428458786
-0.5225153442828494
-0.5308206232709578
-0.5328861323607418
-0.5308318061284041
-0.5258624020074154
-0.5219294129174247
-0.5199331073468569
-0.5387783983959484
-0.5573950086228232
-0.5693606245739178
-0.5636760186781028
-0.547346700561774
-0.5383643232558962
-0.5440405448978131
-0.561922518916119
-0.5822341689055371
-0.5875710479775237
-0.5852470126463262
-0.5956982650844221
-0.6134232501440499
-0.6185786390430302
-0.6114620985061198
-0.5987802280129602
-0.5991413966009624
-0.6146761340797091
-0.633173236551238
-0.6329622850408161
-0.6073262208120773
-0.5861675049833887
-0.5734509018135554
-0.5758882503252029
-0.5754743179572782
-0.5786170990893778
-0.5758570656225619
-0.5833685341123992
-0.59810155655248
-0.6102933552749956
-0.6010270560352473
-0.5883104077405246
-0.5751990540026344
-0.5717678353361574
-0.5807683887424421
-0.587253789297588
-0.5808550064391519
-0.5689026446271881
-0.5578123388810364
-0.5540002074313601
-0.5470991885073807
-0.5377283211157249
-0.5249812805079568
-0.5143604424163705
-0.5122840317989197
-0.5141849707306354
-0.5060366406292145
-0.4811365018031619
-0.44804015505719413
-0.427814902473552
-0.41223319192207647
-0.4122925794708737
-0.40969571600889054
-0.41147345242973876
-0.402380297488179
-0.40562066598043806
-0.39740484925397124
-0.3777454496339209
-0.3564201256323474
-0.33893433734467493
-0.33598119309417657
-0.3426907379329134
-0.33618867184501855
-0.3357122853141277
-0.31991284636059103
-0.30039845191397074
-0.28450483212502586
-0.28506035728193935
-0.2874290435305084
-0.28796033376120883
-0.2747641767439315
-0.26371955224611077
-0.24202037869937268
-0.21364391178137035
-0.1917217987315605
-0.1768739043924542
-0.1663630109285071
-0.16691140437190133
-0.17333986068448193
-0.1703985766746223
-0.1568745743218309
-0.13185961880805627
-0.10787196732979655
-0.08888504604951353
-0.08375435821832017
-0.0863822633929181
-0.08243143031605105
-0.07129614869429235
-0.06427138391439702
-0.07326196102561319
-0.06561930550909244
-0.05477311952791683
-0.03340196679496858
-0.003033519785427605
0.007035692453140967
-0.0016695469409311083
-0.010535220862589427
-0.017120215439189762
0.0014625305023381163
0.030260999520281297
0.05340810136970069
0.06541247681954462
0.0848905578524537
0.11276002465255185
0.1221696060134847
0.11983565347480442
0.1155264107994334
0.12328262698567266
0.14158232487805542
0.15883361312167893
0.16680158361540504
0.1661011224001635
0.1674175198994743
0.17136607982666713
0.1810035434070078
0.19358882667445634
0.20271910079745062
0.2041277580526431
0.205754577808341
0.21096206266239573
0.22036636101920967
0.22268253203047456
0.21608552615712232
0.21309267938851734
0.21584596346345672
0.23381108094307437
0.2560081442751049
0.28671504356661875
0.2972525967959138
0.2961706768952783
0.2911035488903184
0.295788466575895
0.3218264118968885
0.34450447661820977
0.35680866264467204
0.3572175801268073
0.35733136136421767
0.3815664893525497
0.3948335382621967
0.39377915026351146
0.3936642658182334
0.408528897365384
0.4386806756016691
0.47252578296783515
0.46398731556006506
0.45670423796683884
0.45281379952703443
0.4611663592333931
0.47504890858434423
0.48774808275296766
0.4949914150412968
0.4915906063694847
0.4979901970489697
0.5074753790171556
0.5252321130132815
0.5366107865795744
0.5397780329622746
0.5405290636671025
0.5379452873176439
0.5436192166358601
0.5529697028959569
0.5510399299378753
0.5491162818506805
0.5536023229380859
0.563882708374819
0.5720180386507325
0.577392415481006
0.583051569156667
0.5810553290471753
0.5942841686842351
0.6041169752247378
0.6224481543340966
0.6141777292867516
0.5948616481599912
0.5968393573656746
0.604845660092676
0.6240607808865438
0.6422708975367719
0.6396331896620108
0.6280411317469682
0.6276274123357075
0.6341121387783452
0.6502340449074023
0.646995552983545
0.6402572406702688
0.630927059341487
0.639443113559552
0.6490144508654018
0.6553616988773361
0.6477973421421297
0.6421827152837929
0.6333235067252885
0.6279267512687962
0.6287326773702747
0.6271909543772318
0.6196340403243783
0.610328771529735
0.6053732369741505
0.6020162947601956
0.611544375100506
0.6074047794380032
0.5966124698608791
0.5828260674198246
0.5623808225094896
0.5560249716832167
0.5527708327145883
0.5465136741886717
0.5277924822671841
0.5051509706488093
0.49628803113635633
0.4935749821268982
0.4808392182997969
0.4632696169921068
0.44483491271886855
0.42218055706555385
0.4078206644900999
0.38589022559352587
0.35730836600270716
0.3266565873878111
0.31377473702636466
0.31012353105886015
0.3035022795920416
0.28537265283678287
0.2529947745250832
0.2216335004124268
0.19129627949711148
0.17969011704303275
0.1730912616378252
0.15869185188641577
0.1499279475397164
0.14406267105047466
0.1304254360844831
0.10780588980732038
0.07774043897909902
0.043901918326199316
0.020949129938581744
0.0168277093274414
0.014460676434611438
0.0068414882328548
-0.015477425657347414
-0.039666954942770664
-0.06876597532781198
-0.08994502700388214
-0.09952922462522595
-0.11215299561165684
-0.1366526888419324
-0.1568416981807618
-0.17240154601396443
-0.18667562188927092
-0.1950732356562142
-0.21161831523347568
-0.23812855914382233
-0.2636051475176492
-0.2816267252750999
-0.26837811211821533
-0.2757232601836972
-0.2859504727306537
-0.306065990005718
-0.3278184262128501
-0.34448243715185156
-0.3545206297655191
-0.37348471446070386
-0.397701826305834
-0.4067158044979561
-0.41089173032643117
-0.4093042606634761
-0.4159811637108461
-0.43152372311683496
-0.4507356857338724
-0.4678109513278614
-0.4760284326404572
-0.48575634392945993
-0.4918004007099018
-0.49873187817456116
-0.5077658669860257
-0.5073014139289933
-0.5089300777576008
-0.5156995953595226
-0.5309634485697602
-0.5373250285911447
-0.531730715975641
-0.5172306433141585
-0.4944342996066893
-0.4834818490495532
-0.490476846255678
-0.5074862374331416
-0.5162022462348556
-0.5093033734493974
-0.49991426640671743
-0.4956673570935915
-0.49076877127185964
-0.47484787998251277
-0.4653039508754481
-0.4465798658092624
-0.44736687177817863
-0.46217918117276424
-0.4678324464161033
-0.4570110342329905
-0.440098954625825
-0.4207672733895944
-0.4179454113062523
-0.41882692510477043
-0.41426771956263003
-0.4085510575815103
-0.38368415313714177
-0.38484215428160634
-0.3833525586543007
-0.3694629666387562
-0.33586257196384994
-0.300568924734089
-0.28800816345578806
-0.3027714747267804
-0.3155778386177147
-0.31972807657791075
-0.30303036670102074
-0.27679014675579267
-0.2465150000905481
-0.23266531482129413
-0.2294580401287211
-0.22348124493630023
-0.2181066624233632
-0.2011430034611522
-0.192135287729833
-0.18804684194588317
-0.17760165826670465
-0.1519648669705864
-0.13098622429047557
-0.12078324041758463
-0.12838869597385713
-0.13398131417148204
-0.13482836503166015
-0.1278916817264242
-0.10189354927119917
-0.0733252242384713
-0.060813709587527284
-0.06681230189900848
-0.058375667850100066
-0.04741615427773736
-0.03486000749096807
-0.040857911394990454
-0.046805108427776694
-0.05087998342074977
-0.03966443052979588
-0.01804923793700766
-0.005572186419218397
-0.0074281050241639494
-0.01050181461208534
-0.002287859197602562
0.008663975799431829
0.021128289101477793
0.02808231474271734
0.021283287094421476
0.01995322000588695
0.017071252626893074
0.02087502665576692
0.022514030617084832
0.017715759500495518
0.017466215543505616
0.015358091628565195
0.021158056277171367
0.031206506128792492
0.032384604342911766
0.021949489889158135
0.01546835654701953
0.015997571906810948
0.014998139409265377
0.01979983179146948
0.02216999229813272
0.0056372935805985664
-0.013312060186099794
-0.028871821599574975
-0.013263900376512235
-0.01225257019438633
-0.01819910982539746
-0.027126210233191443
-0.024070450921503152
-0.018785707870067083
-0.01614293091787389
-0.034134438247847315
-0.053828165829989304
-0.0648361073594624
-0.0671452815369527
-0.058301156457807944
-0.04988616151616717
-0.061111413109664225
-0.07792568216876755
-0.07803830776226914
-0.07791342627232613
-0.08302938242769399
-0.09733862882507992
-0.11685945352511089
-0.11594393603539295
-0.10617330648183512
-0.09485660049894083
-0.09571118775279606
-0.11177399918789266
-0.13021388321583194
-0.143692634277589
-0.1491443916209925
-0.14960660933979594
-0.154220083127816
-0.16632784755149668
-0.1740153301199234
-0.16872496320187247
-0.1602089095246957
-0.16401764304529395
-0.17464614285283683
-0.18811554564946023
-0.21051756833155857
-0.22322661366051885
-0.22073927823851605
-0.22318581569597107
-0.238185511111587
-0.251997141485336
-0.25667797966213235
-0.2479477103050994
-0.23159674522542878
-0.23081000914347585
-0.24375010797092317
-0.2600358271041696
-0.25921635641258073
-0.2537984588698542
-0.2523224631906166
-0.26180352842890997
-0.2764408353940527
-0.27700727734918074
-0.26044970796512357
-0.2368373724020117
-0.23241348031979348
-0.2364978610065321
-0.24787085015348095
-0.25982058710328526
-0.26594099752445594
-0.2640988319816887
-0.26650384646737035
-0.2737704373884241
-0.2736970050550126
-0.2638475742208273
-0.250331155368671
-0.2471914192378448
-0.2556559980133987
-0.26840867228131354
-0.2824059573566133
-0.282093444521859
-0.2674802432553605
-0.256275064304949
-0.24787765740436887
-0.2459604220998138
-0.2389383302654754
-0.24177543620911213
-0.2364792102943814
-0.22733396252364285
-0.22167591944401782
-0.20303937157028787
-0.1882210381499586
-0.17326722667346023
-0.17405971027631353
-0.17077710062084633
-0.17472423995489197
-0.16394401581351561
-0.1451642380218697
-0.13396239770032983
-0.12516539712190466
-0.12733228220765982
-0.12460957185056212
-0.11029851887452154
-0.1039438846125284
-0.09945719633197986
-0.10326136579809163
-0.09584086188289258
-0.08117714431656071
-0.0672185804773626
-0.054589605718115365
-0.040862899017118516
-0.03429143087943152
-0.02695460995874699
-0.01306768926023968
-0.008511801511149808
-0.01085834970819235
-0.010659800485255687
-0.0024353209858938196
0.016855026960631677
0.028280248172216353
0.04617187788625123
0.0522100538294639
0.04302804946967474
0.03906184760963011
0.0479312968659692
0.09159911283363754
0.12153720209429089
0.14323079424777818
0.15240060776409556
0.17314750493335657
0.20821188490704604
0.2530109213174343
0.28953542658197745
0.3418884606744372
0.4146435909777115
0.501389296957801
0.6015126170011971
0.7028051927399033
0.7802426415946281
0.8466406447838353
0.9245804880635716
1.0201655443722226
1.1221057993963803
1.216975705390878
1.302641091065795
1.3934468272806706
1.483597961409715
1.560281467177086
1.603361078703826
1.6342024257550936
1.6518951775655104
1.6619378040562551
1.6567075055843794
1.620647871520978
1.5577330104402345
1.4777354635156494
1.3742548739965519
1.2729328018736008
1.178965676443903
1.0673397501008495
0.9350129542090324
0.7832157657375541
0.6153150883517763
0.4581752340567412
0.30661930112911195
0.1576067555184466
0.0035199530181243117
-0.13945626592515029
-0.2542213838515957
-0.3346603565259639
-0.40090149205971193
-0.4526274275057732
-0.5059991662652552
-0.5417793831609241
-0.5541575909717679
-0.5547172050062523
-0.5571777067719165
-0.5581697644975933
-0.5445590260618105
-0.5059575833725015
-0.4676809659560588
-0.4370405019844414
-0.4402673543015475
-0.4504954514308559
-0.46099922442306634
-0.4378942666897352
-0.41351544227024517
-0.38235831372364143
-0.35753323352650257
-0.35337140318883115
-0.3546040169347649
-0.3694596226644271
-0.37382037762017467
-0.37255865128111143
-0.36291818052877517
-0.3549596122779559
-0.3468427863146993
-0.3358124046463219
-0.3334559002856911
-0.32603301720354944
-0.32574222197284913
-0.32036978169849223
-0.3215046025162973
-0.3157130916986238
-0.3155004089386053
-0.3208606701284764
-0.3339244954508822
-0.3354619121573097
-0.3379797026658128
-0.3518489623988942
-0.36485957166810923
-0.3846370408724253
-0.391343151049819
-0.3816185832605007
-0.36461587370558657
-0.3726799115598352
-0.38719474669691756
-0.39686860234803134
-0.3968183987827768
-0.3952832051798167
-0.387380717966969
-0.3853178123401075
-0.3988604767169605
-0.40359746032864374
-0.39220666662464104
-0.3823892299590277
-0.37719907540084885
-0.3769440373746184
-0.3779652201005175
-0.37660402921912556
-0.3630990168333921
-0.36339239962572417
-0.37596251495740607
-0.39196418019379703
-0.40468855125907466
-0.4022393373340983
-0.38858863080841677
-0.37381186426787066
-0.35974540996130394
-0.3640939807664863
-0.36061981315845804
-0.354516470175101
-0.3409074536105451
-0.34665271976297596
-0.3568057902557312
-0.36374403959370966
-0.3616758518887769
-0.35243859246786435
-0.32596853568268763
-0.31187241022723466
-0.3046638821028334
-0.3077061714761196
-0.3014756951276136
-0.29482845560495646
-0.28502444106856606
-0.2864123855656999
-0.2889283838072755
-0.2764053088997711
-0.2589194596647175
-0.2520398632616999
-0.2646219786343216
-0.2695125996998832
-0.2651915915019543
-0.24312006568990802
-0.22435923092224144
-0.2192896405148333
-0.22120288495145776
-0.2221697573424395
-0.21944854762419305
-0.2084664224811015
-0.19685664961759286
-0.18920073565683
-0.179704650694412
-0.16532058290327778
-0.15276555062483185
-0.12800568488490713
-0.11576187351403008
-0.11420612909060988
-0.11235554673872442
-0.11356940563499396
-0.11113659761687374
-0.09376845764738213
-0.07977636750269557
-0.07312912809412375
-0.06742000581332966
-0.054105979588390744
-0.045394531937628865
-0.040066052360365915
-0.04910704377066077
-0.059091269581632196
-0.05079434645616254
-0.03733839545924436
-0.02177520444394113
-0.016921450626549053
-0.023692550309968367
-0.02408405242361538
-0.018705977137044014
-0.0020650949447491673
0.016379220602514476
0.036932713326821236
0.05379806290967651
0.06728116154881304
0.07341576092750604
0.08501930612483712
0.08897092384320554
0.08954372854559081
0.09192632599386233
0.11381877512589948
0.13843837601426923
0.1560210330955227
0.16015935939855797
0.15176970977670617
0.14458500005240338
0.14623495384714374
0.15641515033069428
0.1684128008987727
0.18741616966607655
0.2051865209246135
0.2162314400977403
0.22848532619962475
0.2398122831651702
0.2453298842867558
0.24534325134144958
0.250532719713715
0.2663908173327667
0.29627383055853546
0.32156658382627906
0.3395219222328885
0.3489183209431581
0.35585786738648256
0.3682734291952244
0.37975532220794744
0.3924380949650355
0.4069303409047066
0.41651671129097595
0.42241577245609324
0.4310335914024719
0.43229757829967075
0.4268154744960519
0.4170257966956928
0.4306949402292766
0.46080122216135144
0.49147324293042266
0.5089755479023335
0.5047602034171065
0.5078134603456719
0.5105025707562122
0.5180112532549749
0.5242322842556597
0.5233634769892404
0.5306583756736191
0.5509950764846464
0.5742988786990886
0.6011754947069955
0.6209397441110108
0.6244321639951105
0.6101221621344747
0.6048587140398763
0.6000925281345684
0.6199261025978479
0.6335336329594466
0.6445720703886273
0.6582241606791089
0.6683818557245784
0.6631391545215256
0.645542802111817
0.6277943160731424
0.6178230841961558
0.6214224771698349
0.6346209323025637
0.6519212093473934
0.6592817884957832
0.643576754726679
0.6273837260026055
0.6155813632743988
0.6270857268354857
0.6322930713055713
0.6308949321280166
0.6350944934810546
0.6381754124285917
0.6404401880824416
0.6342574715364422
0.6202354053453604
0.6069164761954698
0.599486709547121
0.5997756786068131
0.605035884210452
0.6015344625665492
0.5865245079890572
0.5664141369327395
0.5549355514728378
0.5429344867070048
0.529801403061461
0.517673504960583
0.49831298712504657
0.4778247675616794
0.4549903321929226
0.439882323398911
0.426705554487171
0.40569813943013533
0.37777903630576953
0.36004087535292106
0.3537084561339535
0.34871610269302866
0.3395758327649772
0.3192742110369534
0.27988265912144433
0.25588976664323626
0.2305180385982157
0.21201317786025745
0.20312836240976515
0.20600675195815044
0.20112563563522606
0.19093389606379174
0.17696521278223304
0.15312459428809105
0.12033591036945976
0.0902037662124621
0.07067110371709476
0.06357793132329076
0.058863324571954145
0.04616138402740211
0.022430149669837154
0.00415787214935051
-0.00711976126918311
-0.019021656601150027
-0.04862648655065891
-0.08707447703958322
-0.11635106773588837
-0.1336995017831216
-0.14155065717959014
-0.15667777921864812
-0.18151172579630037
-0.20993897150823498
-0.23309961188048506
-0.2500678821930363
-0.26754701875169046
-0.2772876478021345
-0.2783642763552616
-0.2899919111303182
-0.31551753246313835
-0.3366221265295605
-0.34597251905713894
-0.36400503673162465
-0.37758893645051017
-0.3723730811785822
-0.36970997283603846
-0.37203263806361186
-0.37353514497998663
-0.3894677060384801
-0.41402500594777397
-0.4362143887396597
-0.46060655881820317
-0.46034139284572595
-0.449755356178772
-0.44226982806561993
-0.44550859923203745
-0.4475658112810552
-0.453624826131409
-0.47100553538665446
-0.4838363256619338
-0.4915038887377086
-0.4839354996498118
-0.4675373818595707
-0.4505471698607271
-0.4463906431456482
-0.4483536866572298
-0.450943295228638
-0.4471411618216713
-0.44244090844855233
-0.4295200430762398
-0.42089177524956206
-0.414727413650337
-0.41041937915625937
-0.41132761643112065
-0.402808274964995
-0.40561620671311294
-0.4148735293454358
-0.42112546353486185
-0.4231569261346511
-0.41395529274226145
-0.39169604616965836
-0.3795779815684013
-0.378828993552182
-0.37877625064295956
-0.3775968693566642
-0.36614457162240893
-0.3590757005948765
-0.3530426754445325
-0.3450034051382259
-0.32886454344583416
-0.3034155580418072
-0.28361952767659315
-0.27009740837023744
-0.2634704009458544
-0.26191867443741673
-0.2575194603591769
-0.24082438970650366
-0.2271029875861891
-0.22765787937441131
-0.23334628274702057
-0.23319457231712187
-0.22202718637434887
-0.20748521906899858
-0.19782011157103443
-0.20036784352823228
-0.21208903835454834
-0.218653468812779
-0.21549587779653445
-0.20140765509415953
-0.1934895151285388
-0.19236355838423438
-0.18461450600788934
-0.17544149303964005
-0.16607641665772613
-0.14829108543677383
-0.1443727851651589
-0.14792376935111037
-0.14735833939743778
-0.14177099632985304
-0.1305610776079522
-0.12869059556817616
-0.12274158818817937
-0.12126703164655589
-0.10077800620148608
-0.09088252586101683
-0.09036730438545972
-0.0998495556112339
-0.11231710704233798
-0.11251807178179042
-0.09954246516165752
-0.09078923573666842
-0.09358663865085567
-0.10275096818575281
-0.10089170566222115
-0.0935045840905296
-0.08181259400084476
-0.07497226339834095
-0.07390032324111859
-0.08531093239442826
-0.08723291584182694
-0.0814967933984758
-0.06993252050911095
-0.06413451727325156
-0.0744760119449665
-0.08325521340387558
-0.0929101450657296
-0.09855450519805464
-0.09957364426795755
-0.10145551436578008
-0.10694111922801665
-0.11053169402168683
-0.10886405827058994
-0.10559314099301097
-0.1040682206033166
-0.10794325185018563
-0.11995625078059387
-0.12728176578112818
-0.12746925127240463
-0.10525114018498258
-0.09723617820329551
-0.10982216683317195
-0.12987648267027407
-0.13389081165192374
-0.12307424229138951
-0.10931605749793061
-0.11121871319597934
-0.12266667352396628
-0.1329668059592956
-0.14515783403879687
-0.14763074570904638
-0.16325911972802654
-0.1804336331184126
-0.20280270263220532
-0.20868660836413824
-0.20631096458678563
-0.19901882979453397
-0.2063265764447192
-0.22455864393536382
-0.24485183696098153
-0.252239880212813
-0.24823507404853812
-0.25326957778269477
-0.26397343376113974
-0.2720943367470705
-0.2739575312360915
-0.2655833221560969
-0.25977590045945714
-0.2650675238399524
-0.27869992619173783
-0.2899810698921616
-0.286998626275813
-0.2795067848038506
-0.27542917391766614
-0.2829949823344787
-0.3003636362509917
-0.3150145047976929
-0.327244020033406
-0.32575312264142237
-0.32243519502408063
-0.33132023397331883
-0.3359230504946087
-0.3350168577536846
-0.3392765559353942
-0.3288619001326486
-0.33458931535301806
-0.35065696038885097
-0.35631089527408866
-0.35460004837127834
-0.3409450364734063
-0.33395904358072886
-0.3391341242224526
-0.34365353552305034
-0.3347011691056764
-0.32478959640525357
-0.31269995289773034
-0.3197956386614915
-0.334788870974226
-0.3415099821424341
-0.3405735730349499
-0.318557634625064
-0.2879791285481517
-0.27935989302724173
-0.3024716749124436
-0.32528027564365797
-0.32490678491100006
-0.2940358684656968
-0.25769939817201276
-0.2387936788255281
-0.2296998170798998
-0.22676646351433677
-0.21901898035902076
-0.21043589545371086
-0.20957353963544392
-0.20912049713015946
-0.19749355650460798
-0.18416573286130633
-0.16030097224159984
-0.13506783000892372
-0.12038158923048135
-0.1260217217567215
-0.12820067617615555
-0.13486748369020093
-0.13688258720458688
-0.1403644734846792
-0.13098625917194198
-0.12310596583543974
-0.10209179018194567
-0.08352256477671638
-0.07565340017210824
-0.08307754297903161
-0.08475503278384736
-0.07368310456078415
-0.05231880352289166
-0.03196864310181884
-0.02058229115599969
-0.025498957025635375
-0.022626491692348812
-0.006487134570366417
0.0183269132827261
0.029219429125761733
0.02678641014141751
0.024440755184536478
0.037121474509521094
0.06023786990866301
0.07760364402037674
0.08157729518733632
0.08801483993400878
0.11094179009026182
0.1411921721324394
0.1769242621860985
0.20866790391109216
0.23183596950330945
0.26106676268210915
0.300013475930743
0.34012357654159214
0.4112949081347563
0.487887299203118
0.5637912349629003
0.6460195674665226
0.7458579673468446
0.8535368880038442
0.9473862872612325
1.0292338632713325
1.1103678299871287
1.2057389346664409
1.3031395874067595
1.4147754215977966
1.5174544912729704
1.6020227291035358
1.6657350150553976
1.7333110165335395
1.7818665232459068
1.80865832989576
1.8106386996733679
1.7948306993779257
1.750558888946622
1.6747773550359397
1.5815295714363395
1.4696017280904077
1.3493765473556194
1.2205567971831948
1.0990191054546092
0.9624959699235736
0.813132957999454
0.6497193875276751
0.480504908500577
0.3228943262928547
0.18666393774647325
0.05961912381459251
-0.06219511367362358
-0.17174775988405164
-0.25865073870705213
-0.3195342794008623
-0.3534695830577108
-0.3702080900350091
-0.38438351858082964
-0.4030004463470507
-0.4220776068492328
-0.4156622572468171
-0.38740176325850545
-0.35101356686271057
-0.3192995544316633
-0.2998738823130463
-0.2850928164154241
-0.2728054444595479
-0.25292678663148427
-0.2419205795347737
-0.22359881303877982
-0.21717180087216584
-0.21255488805713021
-0.2112595339232195
-0.21113547800927315
-0.22162862109441808
-0.23540143242222916
-0.23809800086631958
-0.23428241476889414
-0.22943451069326581
-0.23147567948657088
-0.23917291393081982
-0.251598699411864
-0.24646487390781666
-0.24237470505275374
-0.24999776160304818
-0.2629152143102424
-0.2841685231470726
-0.3015417214208136
-0.3031244435322746
-0.2919594803089604
-0.2820757468500174
-0.28597684901281023
-0.296026505774742
-0.30886112956419237
-0.31470933263162515
-0.3239406054102059
-0.32831036246656603
-0.33178081896222633
-0.334652821213648
-0.3222750335495765
-0.3065453121071888
-0.3051600177853477
-0.3187272280823088
-0.34114207791658957
-0.34799078421906354
-0.34537578641321964
-0.335127825198598
-0.33128442257925644
-0.3375082450008582
-0.35319023823632295
-0.3676516323048397
-0.38547197543707473
-0.3843774357471788
-0.38603724979871623
-0.3919807074760107
-0.38695386757849315
-0.366994002341037
-0.34949976908463165
-0.3439361081185081
-0.3536651699525426
-0.3625193841566807
-0.3589088578841011
-0.3449760732781018
-0.323779269217892
-0.3145502810191176
-0.3060054771312892
-0.3033399424027623
-0.3032045722844803
-0.30530202552989905
-0.3120815476420614
-0.3186687652042285
-0.3229358524206071
-0.31146428230140866
-0.2964688228970146
-0.2797889733159547
-0.27791183102639455
-0.2856583709547148
-0.2966289557712405
-0.3083909886048546
-0.30477977932982425
-0.3031978853751061
-0.3006022771113597
-0.29425500682931516
-0.2795870914480655
-0.26515119641751744
-0.2527864043414351
-0.24524712816599906
-0.2544423392442741
-0.2562722937072645
-0.23945366348798908
-0.22108253800162858
-0.208489767060476
-0.2099214494426339
-0.21165213503481822
-0.20758505854410172
-0.1836891148984931
-0.16712915249036212
-0.1521127762218989
-0.15085158529732565
-0.14809275056419224
-0.14262038213022507
-0.1286409381022138
-0.11317717857181729
-0.10843923366441673
-0.11107391473363253
-0.11315037062306281
-0.09300537248326753
-0.06773034492963735
-0.05411125125457518
-0.05428620909630215
-0.05727127903112424
-0.055133797452452844
-0.057029610145242146
-0.04648107562666098
-0.04393428803605118
-0.03352136636490193
-0.0002896348445218943
0.02555058139445225
0.015925306783210524
0.0025716084447638724
-0.002303274295537733
0.003743088558965496
0.014608935235569958
0.012901886213395471
0.015712505560960814
0.01938084321661125
0.03642043795463078
0.06134070264836765
0.08834602570985617
0.10462229976042375
0.09521942197161992
0.07997529556366534
0.0701834991172345
0.08049440097422295
0.10419741483162329
0.1336665143599948
0.15242613230702326
0.16200497540565673
0.16118532302504598
0.1707207421650926
0.17627168480980734
0.18913174766097135
0.2019798704586151
0.21420836612200403
0.2230733497311013
0.22918755417941247
0.2319429600596978
0.22310248302812669
0.20968674858656042
0.2112276662477243
0.22253924559306337
0.2399611013091087
0.2607481290747365
0.2821550248934605
0.291060933218963
0.290518111600703
0.29700550903466894
0.29862222905067226
0.30696424038761544
0.3153178415302196
0.32490317176883504
0.3372452787139729
0.3599721014476202
0.366228566758149
0.3721865055161031
0.36899460646888804
0.3825892191765095
0.39832053767418535
0.4161860476815058
0.4248921711369954
0.42748747088584255
0.4120675680932467
0.413722050068206
0.4229873294274551
0.42795833832247426
0.42222262195098964
0.4283574477543159
0.44056026900696554
0.4627933789092467
0.4804043053594975
0.48667449444471844
0.4767161788709584
0.4749365341445441
0.4822455033117954
0.5007735398457506
0.5195292350811269
0.535150019056881
0.5390855746467129
0.5365175963121867
0.5381205623463262
0.5399213783667267
0.5547305804540269
0.5599604778167837
0.5507225144662945
0.5376911858382567
0.5306255692148529
0.538064183498519
0.5560341914164724
0.5656101592487822
0.5628194750437858
0.5470463935411742
0.5353744392210956
0.5409202647811784
0.5526932951784451
0.5526845444378179
0.5494339185812521
0.5502609298721759
0.5545512544365208
0.5540619040468182
0.5317006116634513
0.5167592903219719
0.5171691576387174
0.5289606201915893
0.5335168710514131
0.5204606877656371
0.4891802287474294
0.46927457262221156
0.4589119818871237
0.44191871203302363
0.43751963555615475
0.42221801681261995
0.4054744926208766
0.38667991834082416
0.36705650113738797
0.34447013161059564
0.3228902579941469
0.30415064438016465
0.2949679858000783
0.2883273212573974
0.27812957580116415
0.26163281540120764
0.23640067205347975
0.1981662393900705
0.16951684007776602
0.15137403180850614
0.14923711554425106
0.14419319759677757
0.1270947820565189
0.08971020331839172
0.07202297439922362
0.052985513377686165
0.04054049179725952
0.02706787646107074
0.00464277297352919
-0.01848610288465674
-0.025830527018530412
-0.033858999610084206
-0.052326332086904924
-0.07572926466284584
-0.09978497129661358
-0.12295686460370105
-0.14035147242549298
-0.14799065821562854
-0.15410245648681875
-0.16477870759022809
-0.18733180792618417
-0.19764291609643564
-0.2072965493429657
-0.22421533281396408
-0.24899813627485992
-0.2688169537238122
-0.28701717035429486
-0.2877193553563143
-0.28617021553811706
-0.30280425991626037
-0.32662496374949856
-0.34236377801398704
-0.3451276952853447
-0.34619725784831584
-0.3476985356005824
-0.3471805048879816
-0.3611121706082078
-0.3705646131028509
-0.37034131041543844
-0.36592658634142455
-0.37867330109921515
-0.39117973880362833
-0.3878755269130671
-0.3827909544067179
-0.3734782574635069
-0.36298295011299636
-0.36838823918532243
-0.37565177894020674
-0.3746987567958796
-0.3734591343544648
-0.37528602874010736
-0.37651446522479187
-0.379888300931788
-0.37564048895411783
-0.3549199999236957
-0.3415281718377315
-0.3470606126284458
-0.35870091728522596
-0.3703466999736358
-0.3688775230751201
-0.35856746955339636
-0.34460665525440637
-0.33737342663539166
-0.3420590138337732
-0.3412735679759545
-0.33563205694456427
-0.32788608613525444
-0.3226187330132037
-0.32624453768452144
-0.3406011920664678
-0.3391472700598194
-0.32890911744898976
-0.30653820762446266
-0.29309904249272906
-0.2870749345784541
-0.2970198058376639
-0.29792069653027775
-0.3001632637094081
-0.29185705910975535
-0.2772853103055269
-0.27568427078633573
-0.27394383871798866
-0.25986966414471485
-0.24018739771427067
-0.21796103703006336
-0.2054095025065084
-0.21047969727845625
-0.21182359470070217
-0.20090989972124695
-0.18599106538411073
-0.17715056534013357
-0.17958940929940892
-0.17226511478640016
-0.16831279653015388
-0.1503518218228785
-0.13670488573444103
-0.13776051020795022
-0.1437667302927757
-0.14130955316993654
-0.13375846039737108
-0.12448273738188921
-0.12081848976325936
-0.1252190596148228
-0.12762607069037032
-0.11553958919377835
-0.10728022893341593
-0.11048775386030486
-0.11906948289518944
-0.11564152425546172
-0.10265478318369431
-0.08957834001441901
-0.07428484311879643
-0.06959916181445329
-0.0730878092024568
-0.08597866808349408
-0.08661230165389516
-0.08231865432979694
-0.0755445928426968
-0.071482821665672
-0.05365929822182132
-0.06388439660763695
-0.04540211952282702
-0.04185255525766691
-0.03401279184427206
-0.04141424383840778
-0.04391725839508058
-0.03847034273330544
-0.027209032836764645
-0.014709478162596382
-0.011650327960847258
-0.028709589943164585
-0.028960117083784362
-0.015449715836858615
-0.0012957506503647664
0.014117107077755766
0.0027200258929298495
-0.02449510682887696
-0.04738109717557567
-0.05189331477148319
-0.0383289495043781
-0.037195198367330436
-0.04207470707525158
-0.052347588977450336
-0.06586767152374538
-0.07713157262957869
-0.08246639268263159
-0.09101539352774102
-0.10124091980495632
-0.11007913690267564
-0.11385552658464682
-0.11255711216853342
-0.11044279861983541
-0.11146604173003363
-0.13087084724131873
-0.15033369675065753
-0.15977010647077322
-0.15062119871131868
-0.1417920895004406
-0.1402866452318683
-0.14364877001020437
-0.14301400758174887
-0.14752214439234834
-0.16234592509196855
-0.1853343546371176
-0.21311587224967515
-0.2279766245106632
-0.2268504258683778
-0.21552080320172104
-0.20160241152839176
-0.20064420712404724
-0.21965099074566924
-0.22412646401614086
-0.23663901953774075
-0.24313852222717194
-0.257039339670938
-0.2612405094505562
-0.2581715389562835
-0.24751595847643762
-0.24207951795726879
-0.261381910506196
-0.28313680745236675
-0.2902460822429681
-0.2848370604800918
-0.2705634246775181
-0.26603214781786255
-0.27184653806254544
-0.2828125413575231
-0.2922109567668059
-0.2939335504637816
-0.2922480973400956
-0.2840992772719576
-0.28382641472819065
-0.28654462867987884
-0.29072646938671776
-0.294234881225723
-0.28577880677599926
-0.2845836201256224
-0.29065051206598663
-0.2920802620176751
-0.282162037515953
-0.27310546355167975
-0.26033723122539926
-0.2575941651600411
-0.2654920295112225
-0.2696945767075441
-0.2738705105874676
-0.2572766306586522
-0.2501316372081621
-0.24908758538653766
-0.24103212835972881
-0.22505981626576468
-0.208810192845342
-0.19229444748622476
-0.19413891078695264
-0.21130428901048354
-0.21694954195542504
-0.19766103291264364
-0.16474331938328934
-0.1475056706607588
-0.1505400401265501
-0.15372103854328303
-0.14119583638146194
-0.13098437973326338
-0.12798515941846939
-0.13404536764031666
-0.1348391102396263
-0.11329429102513003
-0.07858251062776907
-0.04933539159827281
-0.03686090320134014
-0.03995565789558202
-0.043989407820856016
-0.04135054208976906
-0.027784168713564268
-0.016429311590173447
-0.010659891523458559
-0.0010331227081334393
0.017316561126896137
0.050170366996103874
0.06577537214314744
0.07418541531851292
0.06622969586653002
0.06386373420818434
0.06554627010254309
0.08468909283101506
0.10418865280556819
0.1118243187510584
0.10727701858354595
0.11067366521469973
0.13085083686941995
0.15803102892717588
0.18854040613968007
0.21351800940769528
0.2347839483541745
0.24958156287097336
0.2792622139624927
0.3277839275321709
0.36736902382343894
0.4065541777102636
0.46272628790047443
0.5532729313478586
0.6668976012040915
0.7712486449843035
0.8461814024730656
0.9008470129950158
0.9669789631419774
1.0479318455020024
1.1470609765401536
1.2420891964861756
1.336678428283025
1.4244211313958577
1.5105064567142028
1.5784581120175716
1.6520812587378508
1.6956761147369181
1.708331506938759
1.7083618465259114
1.7104203311185482
1.7093256031358528
1.6840287792299853
1.6150073933936764
1.5147810966194926
1.4077712675565897
1.2887996211732509
1.169166920134752
1.0400340959273378
0.8904264999438133
0.7331722397191227
0.5655368829396313
0.42018467880296123
0.27149528670953177
0.12192322625373807
-0.022414721037553778
-0.14014356615909643
-0.15923190945510202
-0.28259465339808193
-0.3347515595487894
-0.3764137887902972
-0.4087866457108125
-0.4278875810884721
-0.43034420676674046
-0.43231406835933617
-0.4173028006865085
-0.40543483127792773
-0.37624864897131
-0.3303385783469796
-0.2905754371138002
-0.265487705927498
-0.2590265856220776
-0.2543926958410874
-0.24150024656640365
-0.223995679743635
-0.20918750966618774
-0.21262370628333246
-0.22940694789996208
-0.2467060892673137
-0.24924901437960245
-0.24343007502959502
-0.23930584104830457
-0.24754355034694434
-0.25134667129386523
-0.24917692435250924
-0.2376655002045794
-0.22168326376674158
-0.23265020040192824
-0.24675331393962563
-0.264592659115545
-0.26937482485495007
-0.27360199166194343
-0.2699416409111479
-0.27394856692592945
-0.2737139553329087
-0.27045129271090756
-0.26751071570434515
-0.26549650206729425
-0.27905071858798675
-0.3084736087436628
-0.3354513944854404
-0.3316006773885712
-0.3268236411896882
-0.32935687537329933
-0.34438595897185553
-0.35787212745082564
-0.3621854688361445
-0.35366366039485714
-0.3408512046950953
-0.33687049250364565
-0.3484361359413131
-0.3581558432097868
-0.3574873802369259
-0.355893273225311
-0.35459728021350717
-0.35116173452478644
-0.36725683124347747
-0.37816930869684173
-0.37261323477974
-0.36646206203460996
-0.3670452228159515
-0.3743687397146928
-0.3756223779905104
-0.3714231417077455
-0.3620831819788294
-0.35218713414831226
-0.35639008323525495
-0.3667657274130306
-0.3604352858089271
-0.3358811787493712
-0.3193553065627329
-0.3126971543333928
-0.32049275714136066
-0.332375563373115
-0.3312656563317156
-0.3196132481424727
-0.303225329129084
-0.3013358327951068
-0.3047990845400019
-0.31148801111817015
-0.32110644869676563
-0.30864045038192456
-0.2896618981099358
-0.2827941534598553
-0.281637580813602
-0.2749099017076729
-0.2641452925300067
-0.249962295785268
-0.24518556174758263
-0.2568415609065898
-0.2632717826489304
-0.2522773658869243
-0.23271505790871
-0.20886400101773633
-0.20361766495886627
-0.20691227699859904
-0.19952907039868842
-0.1762862194720883
-0.1451233602287616
-0.13808724102392836
-0.15579311414327746
-0.17169693088988
-0.16596778174037172
-0.14501795111853
-0.11678518550498825
-0.1014131925803002
-0.10989063993534667
-0.11597669728511838
-0.10380555427948501
-0.08711132372582339
-0.07932264360646195
-0.07464293759456159
-0.06727532092887839
-0.06210310676939851
-0.06370415530667035
-0.054684723214553616
-0.04419945974335432
-0.0346892857698279
-0.027984546680826762
-0.02255860842158063
-0.003762839611343717
0.011010117653136262
0.01718443741147386
0.010184496435373907
0.015035104991519688
0.030517733474409888
0.04686961319218782
0.052192021997172294
0.05655768461752336
0.06424145618014396
0.08104407841036444
0.0956775773658823
0.1008210912760035
0.08427129697821654
0.07044376700855347
0.06483435107456231
0.07202343212426622
0.09445528165219617
0.11901112887416246
0.13684436004994233
0.14002377415017844
0.14075846830154773
0.13722022122537514
0.1532139087369959
0.16097272888768013
0.16812797740591665
0.17986954680661027
0.19436855598076616
0.22047645268879576
0.2487350717514868
0.2632777527260279
0.26166454425848334
0.26037502276022073
0.25910489571505924
0.2755539087167575
0.29812647829464717
0.3042411140236463
0.3094607141636116
0.32354992953786715
0.32880900061194873
0.334391727232573
0.34121239252313623
0.3437767035040208
0.35001700477857023
0.36084674850770687
0.3774842664511402
0.3910774278429056
0.398571813555766
0.40210040472109754
0.4010495004776303
0.40426500887627576
0.42120289488058726
0.4405681858176358
0.4519811366459416
0.4569628955800818
0.4588653267523009
0.46531227704404765
0.4653127997294601
0.45458920948723425
0.4517504234391308
0.45953701479705206
0.4709243690799661
0.4843805556249443
0.49288068427086235
0.5040472924960683
0.5111604309630052
0.5084155371485538
0.5058761522547836
0.5108593513631778
0.5148140027509417
0.5134611575173442
0.5263241251682064
0.546987875029168
0.5632394265496022
0.562560696257844
0.5522688882917574
0.5470050692885154
0.5537814860247322
0.5832723984182547
0.5967167525321363
0.5907518879192695
0.5754422402010922
0.5675659012082971
0.565591749484849
0.5731765682598433
0.5723112323194609
0.5672633546413667
0.5665730299165355
0.5684053062864434
0.570315229013978
0.5658911258679787
0.5536041781252242
0.5319259188978919
0.5188583032423444
0.5076859319494085
0.5096980640152453
0.5175697677768208
0.512685701680352
0.495350680895544
0.46983698397629875
0.4553700168770656
0.4406599022005653
0.4266234855705961
0.4111264814194212
0.4039361762397566
0.4132945153487197
0.4157075450785102
0.3986674142303271
0.36858645874022206
0.33981154166174127
0.30807537717923345
0.28772569919596835
0.2778528115770189
0.2598483244469038
0.24470450590623438
0.22693554304418384
0.20624369059346395
0.1890450463335962
0.16832916748026802
0.13494987321323731
0.10295327547643104
0.08791160688730691
0.07671264742959537
0.06326309600598408
0.036587424873171896
0.004019806250085035
-0.028325963630043114
-0.04212956831575327
-0.04775524934134192
-0.05617736780146916
-0.07196181025632868
-0.0914350668162876
-0.10298940980279132
-0.11881925991019295
-0.13616624973978306
-0.15227194712428055
-0.17231196416325056
-0.20481862311335008
-0.20766816321517784
-0.2208241270999689
-0.23817137896779908
-0.250848444445966
-0.27410136401942736
-0.29205027145504026
-0.3046836193522852
-0.2991734298579939
-0.30541392020314656
-0.312408464865337
-0.320451491803253
-0.3304480041984489
-0.3393362448955663
-0.3391722462440559
-0.3375753803370314
-0.33850347841255574
-0.3431683219341194
-0.34545830420636386
-0.3462808349568036
-0.3480695290370662
-0.3526481230535521
-0.3529912480539084
-0.35672154556738345
-0.353457866053547
-0.34899288356701336
-0.3497300930385417
-0.35993740710890626
-0.3741182374430621
-0.3745702466443701
-0.3741073581725603
-0.3736429186594565
-0.38202491891997636
-0.3940646834675929
-0.40121737456802825
-0.38669948018142264
-0.3535632735772021
-0.33263089948194197
-0.33031249932828
-0.3344041949499827
-0.3366697146726048
-0.3322300743755089
-0.3168171572906258
-0.3050831363974689
-0.2988641220924487
-0.2920626674316196
-0.27705605803032335
-0.25812321544505584
-0.24717248442775103
-0.25306111884542654
-0.2712199237214823
-0.28517902535220224
-0.2824360267762027
-0.27215510523593905
-0.26960397873326963
-0.26777427116338187
-0.2724745650494847
-0.28127453679213704
-0.2828946206152548
-0.2794824585003131
-0.28874897716749903
-0.28659881903534273
-0.28158866397886706
-0.26945878828956404
-0.24930636866985426
-0.23762268572381753
-0.24571146837677152
-0.25130925202730836
-0.24374861102989165
-0.22700970346410163
-0.2011056576942933
-0.18649511783446876
-0.17800348616722445
-0.17167672586333518
-0.1605091338850475
-0.15275274357462065
-0.1587955403842896
-0.1786499921772556
-0.19035705131158234
-0.18568951626454674
-0.1603869774477815
-0.13643226487466112
-0.11749847920983063
-0.12038015523049307
-0.12281136519604145
-0.1180888274791367
-0.10286559877912813
-0.10186878298245157
-0.09893399397470576
-0.09712129628054075
-0.0863685283638839
-0.07431215815520903
-0.07316550911029986
-0.07835774408063446
-0.08623296619893901
-0.07909750516650586
-0.06031297822985914
-0.03507137854369006
-0.02992512350473127
-0.03694328675872962
-0.0494149781965962
-0.0554410376570086
-0.05380220225216437
-0.046635331094082876
-0.042179817427517245
-0.04287645854517292
-0.04353651311978549
-0.03836031733041376
-0.03650030262543463
-0.04497219906670463
-0.06407768332636517
-0.07733419912650168
-0.07832879478440419
-0.06156341758001317
-0.040459196206695004
-0.01836652239303343
-0.013587950287696647
-0.03252438047281443
-0.044652188023066475
-0.06277957044276618
-0.06523148987670743
-0.07274929439415342
-0.07372723375047405
-0.06052618084819016
-0.04106962446568904
-0.03853853376044619
-0.05597315065141049
-0.07505238443187585
-0.08874565140927837
-0.08880145613552914
-0.09290640352731391
-0.08670536504693113
-0.09337733657746695
-0.1165710770440036
-0.13613293541563826
-0.14503089410673073
-0.152101011204568
-0.16007613330003456
-0.17321485261984942
-0.17594053446251015
-0.1712911472565536
-0.16535627601859648
-0.15934306465138562
-0.16513925913192873
-0.180290348784955
-0.191966637136989
-0.20259647055110455
-0.2051485357847538
-0.20479804484601838
-0.2064153179260579
-0.2133451805877788
-0.2167264885538678
-0.21593768178150685
-0.2167658654843265
-0.23018620474736853
-0.2500854746158077
-0.26455289652358677
-0.2607626735899092
-0.2551845689581071
-0.24353815118241826
-0.23893745670006894
-0.23984950542141328
-0.24382638865883563
-0.2569651557885296
-0.27010556980106015
-0.26432294867954237
-0.2597533217529402
-0.2612754661524573
-0.242642743704402
-0.2346735267675433
-0.2358401580711609
-0.25316001487958456
-0.27412105464716585
-0.2727849608621394
-0.25372977494557125
-0.23923329586307682
-0.2512688068026604
-0.2629850849789827
-0.26614612941858473
-0.24946499794574453
-0.23064530235751854
-0.21762624217974336
-0.21834762499066138
-0.23067967040111306
-0.23113218422428228
-0.21879717670637291
-0.198565205588522
-0.18204083310335684
-0.16923318106830065
-0.15587968603058536
-0.14107501055590743
-0.13245869629392432
-0.1297366580352194
-0.1313946207226657
-0.131646526618373
-0.13019954220934654
-0.1169961775613598
-0.10272997834502874
-0.08405758582201679
-0.08418461372721615
-0.08603620569251269
-0.08657498305961014
-0.08276378929896415
-0.0657676772283403
-0.062150097889241356
-0.066127984453354
-0.07161322587435622
-0.06946622457358229
-0.04841133986363796
-0.03257119000735662
-0.032641479126575876
-0.03337952570305048
-0.023204478690373783
-0.006403575885304993
0.003276184009902484
0.012228312918428855
0.009452530302112024
0.0028684914457680765
0.013212670648826426
0.040165942757760226
0.058691722616703766
0.066640506146696
0.06766109375034213
0.07547281396927247
0.08457045928115647
0.09494203774642931
0.11023785129618857
0.11671467236387101
0.12229587936587445
0.11751135935634105
0.12005047046770198
0.13539678549644493
0.15865905053762483
0.18097949992811233
0.20418141334422865
0.24534648567436487
0.2843278076315521
0.32539162156705287
0.36609130074456
0.4067272292048754
0.45889120900240793
0.5418045800349002
0.6487509374155545
0.7510431778451788
0.8373887748911423
0.9175516658410208
1.0052634507749874
1.1026603762458944
1.1984523898125055
1.291420237361853
1.3675286715886956
1.4441742336550876
1.5222755726491708
1.6067189668847293
1.6645517843229112
1.690591260840008
1.6961336741822457
1.6869830164734527
1.6552117377802211
1.5974701613155162
1.5073575394932908
1.4086841680190612
1.3182421961368105
1.2271910226035982
1.1172306066961473
0.9816572930088233
0.8296359920138984
0.6733835592716393
0.523591417277376
0.3741676763230507
0.23824565707445275
0.1109546952896351
-0.0070827798181535015
-0.10547906837977548
-0.1900195813967172
-0.26099670618224097
-0.3281625307060663
-0.38723176643310564
-0.4281210154719957
-0.43586426602441225
-0.4247905178254948
-0.4092287190951152
-0.38306226090831813
-0.3658077314088714
-0.34707633689836975
-0.32136184083770647
-0.29414372990048365
-0.2651035929963647
-0.25070677303143357
-0.2533815159585613
-0.25419522037201686
-0.2403186023757192
-0.23065891697404367
-0.22764514714702083
-0.24194575257888662
-0.24944152911945222
-0.24645907177438606
-0.23512324827303963
-0.2291552013414129
-0.2370887206659499
-0.24365567112618577
-0.25128737992745226
-0.2471576768444704
-0.2343089363507329
-0.22646441731327296
-0.22086928656612811
-0.21476911487502054
-0.19808611382007005
-0.1921741022963494
-0.19305928227103294
-0.20500753175660202
-0.2234356089549583
-0.23246989894168665
-0.23027446059686804
-0.22142209975457555
-0.23032128517694722
-0.224011388287872
-0.25100918839067027
-0.28018589269451716
-0.2944503806533131
-0.2950214007371707
-0.29715536597643954
-0.3090905050868745
-0.319230255983256
-0.32391256023290826
-0.31672935508580985
-0.32087322374151966
-0.334514255451492
-0.34453210785626115
-0.33902744003405266
-0.32380038794276383
-0.3153319382534029
-0.31270945785584725
-0.32966818255011804
-0.3475970018520252
-0.3359839747983514
-0.3204663616527616
-0.3105083634939577
-0.31832085107922714
-0.33536424872247517
-0.3332639903757227
-0.3196542635470619
-0.3079674350526323
-0.3152979349622209
-0.33676903942523495
-0.3470586403020707
-0.3492243739321961
-0.33777958909049505
-0.3228007461757554
-0.3213830007977211
-0.3338379296890602
-0.34338835778346377
-0.34058091512034533
-0.3373232506795414
-0.3278239013501613
-0.3145306354147041
-0.30050150921448415
-0.2878790673000042
-0.275143914354723
-0.2558940733253037
-0.24752974528869792
-0.24944676678037728
-0.25646351285466995
-0.25302289985313403
-0.23913073294480314
-0.23249179607914564
-0.22792394070322064
-0.2208551778382144
-0.20091536950342462
-0.1961840086690596
-0.18774620859278637
-0.21161518656775774
-0.23789002451423913
-0.2430779099620408
-0.22840356112173754
-0.20058432246896699
-0.18220550514954675
-0.17937372624892017
-0.17866533572504112
-0.17001320228601646
-0.16379551399006503
-0.1566581773265287
-0.14341594751267076
-0.13536185972435502
-0.12944635886839706
-0.11926296035172239
-0.10755969724868206
-0.09708440999873012
-0.08905896558604763
-0.08134832012713938
-0.06754505346913235
-0.04581893329851467
-0.030818051306146798
-0.02132217221371229
-0.02770688580960465
-0.03990211399650017
-0.048753120518651334
-0.035340019678061364
-0.014004944827552018
0.0024358575979660673
0.013372518460893787
0.026434492576896413
0.05169256222909838
0.053749152989918975
0.04908345562804847
0.03311885489696414
0.025691334753474925
0.025581051068484878
0.04896212221473136
0.0793568444618182
0.08350385311542766
0.08856287209507017
0.08019221310642423
0.08219478275647348
0.09945368400311273
0.11610126305416262
0.13763078697718753
0.1374939317879527
0.13522100506288112
0.1448493776235014
0.16271718870873175
0.16868396640717082
0.1755660791516261
0.17115686877333186
0.17864776053125397
0.19895355428862305
0.2268857479407089
0.24474423183760305
0.2568000426544837
0.2612209008637524
0.25831045034705374
0.25752686998055563
0.26863331372046556
0.2852194224092802
0.29355088015242364
0.3107140582994012
0.33426508484375844
0.36786304629459865
0.3739706299251644
0.37119925858058467
0.36961577632834314
0.38081263795408143
0.4038706837748473
0.4183405296686234
0.4129273449698418
0.40196934473916296
0.4083489954805423
0.42778963493329675
0.44502880894555014
0.4478555088122672
0.44145256630763663
0.4392419482296374
0.46410539474500445
0.4824704839050286
0.4882288601788868
0.4761875729671131
0.4750260609253906
0.48809567557188727
0.5114239656942122
0.5266960752886323
0.5317704719682965
0.5333551882935842
0.5445665778238407
0.5583806560442465
0.5714353721829636
0.5706037081314913
0.5656455080044283
0.5599124051029872
0.5607231791738291
0.5702090556766234
0.5734125906014708
0.5730756000623037
0.5728555304197192
0.5751893717358785
0.5654254990243742
0.548442544098123
0.5431565796408143
0.5443764873017779
0.555455785642725
0.5651006981901838
0.5711724231114583
0.5623777149493903
0.5509207109453893
0.5392408111976151
0.523064259863716
0.5149012552715935
0.51902307167006
0.5284104956148347
0.5357394909112276
0.5318554195240823
0.5225566911827688
0.5124214394638323
0.499009540475315
0.4914772032985061
0.4788406289672594
0.4742238005280031
0.4626766110645317
0.44115045204483544
0.4252116708914917
0.4182206975852051
0.4037031143270706
0.3776963118322187
0.36065061537767873
0.3406700499665168
0.3278303094557864
0.3157289494869793
0.30132059641223485
0.2885788261751953
0.26255779829425396
0.23577613504128445
0.21281868208098187
0.1897261841523289
0.16864281782826254
0.15415429421830562
0.13955577484371282
0.1404191460219053
0.1384440887677512
0.10922736596294026
0.05888166645891293
0.02495106137377968
0.015074400045233782
0.00851107960263774
-0.023718599421371094
-0.044985418475015686
-0.07053676355000679
-0.08357842519954092
-0.099052462366304
-0.13068024808000214
-0.1644138156934367
-0.1892567506604205
-0.19634873828385924
-0.2009368983072433
-0.20331568842765071
-0.22117358236606893
-0.25175360210058845
-0.2654450371482062
-0.26528910947504475
-0.2589045345585547
-0.2618442693755201
-0.2789809449863237
-0.2883335561496325
-0.2874513676463628
-0.2802921748987773
-0.2772223219577459
-0.299288919297016
-0.3095595009244578
-0.3113826453377448
-0.31329491884723704
-0.3177300765367392
-0.32193454890153134
-0.3335304713771481
-0.34762891159325454
-0.3398112680773987
-0.3366205858771131
-0.3234041073501675
-0.3288418154953016
-0.340112754966539
-0.35599238677319256
-0.36060908161645594
-0.3600629865068999
-0.3589289308010998
-0.36605441832831137
-0.3762502033021747
-0.372731551925405
-0.3582442757291006
-0.3422481335232674
-0.32687960378061287
-0.3328902434979131
-0.35143185721015385
-0.35717825338968007
-0.3449441008933311
-0.333651968766399
-0.3306289348198294
-0.32886016609818763
-0.3240777135400812
-0.31537081928361815
-0.2978621369939361
-0.2938337529277617
-0.2977988881281048
-0.2920649027605114
-0.2833521433478297
-0.26251318586856404
-0.253357967569719
-0.263523470929647
-0.2774550943707563
-0.2808192092915585
-0.26660628702940786
-0.25832282587279365
-0.24682380229295464
-0.24859766962002808
-0.24961742266036074
-0.23982333707941847
-0.22197250717605835
-0.21011303988319585
-0.20944366182393248
-0.21844979835877712
-0.2075425512748758
-0.19168608019435746
-0.17913117840674278
-0.1726358792994125
-0.179840777287275
-0.18519454696013585
-0.16948397846631164
-0.14187545624498965
-0.1267931786808244
-0.13157247698060864
-0.1318122491855499
-0.11806398266315098
-0.10437613228885971
-0.1035763688572371
-0.11628589978110346
-0.13793806230570327
-0.14107918745034245
-0.1299917103076788
-0.10834749134443628
-0.07432528222047892
-0.06638428001761011
-0.07995620507147502
-0.08941659820309815
-0.08348303345058002
-0.08016780202795018
-0.07886822287068242
-0.0899668715312339
-0.09210956389205796
-0.07401187287698656
-0.05276854498847058
-0.0387604154159377
-0.035044082649885316
-0.03552095538074332
-0.047824029958696654
-0.04632368009434238
-0.046891152745492146
-0.03884851601020978
-0.030437070025787
-0.014944898334574758
-0.017090752280863437
-0.004528473512387753
0.008704731400916443
0.009182493186488158
0.001483236923471111
-0.00828830625094226
0.00214644143349858
0.016006455213732163
0.025665933463497517
0.02594083427819561
0.009206353989202236
0.005067349451354109
0.0016277828489365143
-0.0069047719029447585
-0.018998511402275965
-0.01603238556035501
-0.028820370285831842
-0.03111163362910529
-0.032663482757985564
-0.03682453451982694
-0.04572240312182286
-0.05293994517909437
-0.05511124915925998
-0.05314228221955303
-0.052210909078995026
-0.05108641105473046
-0.05219969228569701
-0.06072782888700173
-0.06689497503175854
-0.0758777858212376
-0.07210205204888223
-0.06226988157227457
-0.051252306711897004
-0.05215949340243723
-0.05460442022337967
-0.07078163238965628
-0.07260489122367039
-0.09271421646825964
-0.12529983436295783
-0.15051477388397078
-0.13813677634347418
-0.11775446489882438
-0.11407405100759808
-0.1316614999668811
-0.1573838112733557
-0.18146488522625875
-0.1886359879342886
-0.18956696054699423
-0.19553819707934175
-0.20928595105491413
-0.21218575578975915
-0.21338274680173977
-0.2092057798053777
-0.20544392222079
-0.20208861385617954
-0.2244597146095351
-0.2499678041223235
-0.24503821397392914
-0.22431153147522082
-0.22012789880228176
-0.23248125330635824
-0.25404222731256576
-0.26130860271279077
-0.25000355224834947
-0.2301931352662758
-0.21987800673285243
-0.22820978196400277
-0.23168878577152804
-0.23916253297454587
-0.24086448863122165
-0.23557305915536955
-0.2345786385391536
-0.23391430930954302
-0.2332755872897967
-0.22228834962079136
-0.2079729777786114
-0.2019277549558376
-0.20049364780771606
-0.20214826018013873
-0.20201299910852874
-0.19490464015936715
-0.19120349230985115
-0.19427176018294312
-0.20106384915308095
-0.18229114004205743
-0.17152786754178082
-0.16542471819303126
-0.17222880525249282
-0.18096278214583275
-0.18156520011840346
-0.1520738922301824
-0.12209864555019961
-0.10355050976666832
-0.12298843800450251
-0.13770105054713178
-0.12267640523377804
-0.09623517890268642
-0.08463241707466558
-0.08787991172722877
-0.10446390967160128
-0.10571188974914757
-0.08492284282292673
-0.05645177782979852
-0.02641461200811746
-0.017100720291797065
-0.026997324568454443
-0.0417751277902311
-0.04893583381267461
-0.04788230979698028
-0.035881333241409887
-0.022711111664382968
-0.0035022719638154926
0.017154747941567156
0.028261294219097444
0.03773856443737977
0.04160675797003232
0.03436044218739524
0.034906933294318924
0.04598041682480211
0.0565832267324032
0.06243139624872457
0.04795040662187499
0.05096852460218032
0.07147483269576693
0.08382553469423999
0.09136710525782848
0.08005242022814775
0.07458969064654125
0.07252853367815602
0.08515104736326577
0.10512516716559457
0.13854618161763987
0.1603838009957234
0.18039611558962756
0.21383452044470785
0.2692374399406969
0.32981575118206025
0.3857994514994344
0.4448130097791906
0.5074628010593142
0.5783227702461141
0.6561694082509822
0.7303198702627876
0.8151147375243226
0.9136043179410829
1.010835189824223
1.0973473030806455
1.1798544788663814
1.2531699494537094
1.3133281131739571
1.3697908169256765
1.4399545226824038
1.496663271042704
1.5432773350318059
1.5648480676802201
1.5708398954874938
1.5618681791821436
1.5272579463763132
1.4865452538431514
1.4064744293649685
1.3023102349845443
1.199998366395436
1.104734251881106
0.9945547373448932
0.8645858585606436
0.706292138576925
0.5328046150688333
0.36824032272535456
0.21260920263338545
0.08301030015350085
-0.037634655907504644
-0.14351688418386727
-0.2367614429256595
-0.319188006552836
-0.3898696284712915
-0.4561184190091981
-0.511209093575061
-0.5420079222754144
-0.5366016796696477
-0.5093205525093535
-0.4827338885460936
-0.4580499734281099
-0.4389183098595552
-0.41800272366908886
-0.3891876708704751
-0.36802378778726164
-0.3566348386119588
-0.35165182172829157
-0.331091232012257
-0.2888378391602949
-0.2495974077024813
-0.221597356834366
-0.20757243662740088
-0.22215870407548227
-0.2363549384020283
-0.23275610346939732
-0.21196166470642466
-0.19989937694274718
-0.1919815403760217
-0.1988785888509904
-0.19769395915929347
-0.18414597829131873
-0.18355353395249285
-0.18278604098783557
-0.19678771285085614
-0.20724098399540813
-0.2052885216859346
-0.21197876465515575
-0.21235198585072051
-0.22562644593729675
-0.24660822619359826
-0.26247487811812575
-0.2738312724054834
-0.27273828811980894
-0.266515074440724
-0.2774338962725815
-0.29236920546417094
-0.30063712928094355
-0.30345534256752343
-0.3102811814039768
-0.31806095523704114
-0.3341167315274057
-0.33891715990659377
-0.32391695593589226
-0.3025425543995582
-0.3016477038908459
-0.3239791308743935
-0.35122810479713057
-0.3534903028032242
-0.3399218898512212
-0.3212051801396206
-0.31351567113732287
-0.3217383904332605
-0.34435040010634854
-0.35114431369326027
-0.35829694540370594
-0.3511645380570838
-0.3495863824037503
-0.3376986588043262
-0.32344006980594825
-0.3150547259602835
-0.3171250893097987
-0.32782554521885204
-0.34533068863695393
-0.3492007233627828
-0.33761062066535397
-0.3261294761120212
-0.316899622159181
-0.30046755635022215
-0.28690995643908235
-0.28416750752630326
-0.2818715580244796
-0.2904042209035045
-0.29726088576540555
-0.3039742202062816
-0.2940726540886187
-0.26725796683431446
-0.22933508732018162
-0.21265760960967386
-0.22638716309102103
-0.247643841810189
-0.26483850779534607
-0.2618046064825401
-0.24587261297380927
-0.22040587631681804
-0.20372035191128998
-0.20589264684273106
-0.21258668026950667
-0.21373844621851404
-0.2050817900066605
-0.1939463853661059
-0.18552565412558739
-0.1819612869908277
-0.17593493608037214
-0.16409512317050176
-0.1400386190753128
-0.11292502471629147
-0.11357990939605717
-0.10813533142633953
-0.10483483906923352
-0.08445763595617764
-0.06318095279178912
-0.050773515179923644
-0.04906975663884918
-0.04922340359446646
-0.04757564748205194
-0.02795603028482128
-0.02393450550905542
-0.017509264149834204
-0.003494896890617042
-0.012409183644310512
-0.02686003620800333
-0.03189643289352936
-0.03453848091270682
-0.02410699099799577
-0.010673284411050341
0.005761673997092392
0.025502240558016448
0.04122400008666811
0.042551116191030094
0.04016373920059027
0.03619775431328363
0.04377483153602759
0.0622846877282581
0.06792520618209323
0.07442870183428733
0.08881412463042086
0.10864063591800872
0.12383854202846076
0.13654449993744544
0.12722906338747972
0.1242725048082036
0.12279300216909109
0.14018523168452363
0.16088691293651053
0.16811514348981768
0.15973456147779821
0.1519192220583594
0.16725145905267033
0.19230503115324765
0.21578975748888454
0.21573490836476122
0.20678855596406828
0.2017677644992453
0.22111845413698306
0.24958307726201517
0.26396991241226553
0.26305845866591326
0.267904586284075
0.26752255684238474
0.2847989632213083
0.31271487876199094
0.3210593098978591
0.30861106549074446
0.3086315817933192
0.3235612877319227
0.35339921757059056
0.36976465033801165
0.3699099246379476
0.3590213223508797
0.36212019700362513
0.3825616003973239
0.4011188115252369
0.41534861062635503
0.42524889434722984
0.4375308779677155
0.44639419716914364
0.4554982263993315
0.45477013869943217
0.45061546835297567
0.44760868626655304
0.45276540540549676
0.4596742144426665
0.47229894217135204
0.48331250616269794
0.4835567917924648
0.4861500752004048
0.4831547152182005
0.4962332497370931
0.49181471523204784
0.48454293186890207
0.48173791071813465
0.48614227807821125
0.5011089573483855
0.5101556500800475
0.5025980478257119
0.48850254375517277
0.4959398294250834
0.5322299473179435
0.5528162724207424
0.5500662561984097
0.5493043952456584
0.5538839549504518
0.5570881103298766
0.5625754872242884
0.5666810589609339
0.5645193011111185
0.5603595463302156
0.5551145523714569
0.561903528283993
0.5724848583130554
0.5792274279577491
0.5696178057421104
0.5525037689213144
0.5388694126423036
0.5317649734426974
0.5269171528397046
0.5121188119002912
0.49438796657991996
0.49264402399334495
0.49010327362983375
0.48005246778857846
0.45944052783023415
0.433150750345405
0.40454094074450053
0.39619410470407546
0.3931592214061198
0.39818469238903137
0.3780106850973304
0.33935326705709473
0.3011351063735828
0.28166887219827896
0.2736343482770038
0.2806972913067991
0.2525109556691163
0.20952536845197064
0.17676822414984378
0.16675608076004314
0.16026945507761514
0.14785419131234004
0.11547906946299762
0.08359591527784158
0.056483505673359614
0.04238793364064501
0.0397905281625446
0.0300840737356159
0.009919459506020644
-0.027103760123756954
-0.04618958855007506
-0.06563915942972914
-0.07873051663158072
-0.10040767153943007
-0.11601421385214981
-0.13927318473855357
-0.14942471674783517
-0.15530905106979742
-0.17034366571617796
-0.18994166137596388
-0.212567620967112
-0.23058291111839757
-0.23879009903226953
-0.23107624057105522
-0.2303182986121056
-0.24871273008801653
-0.28441877478704014
-0.29897684349833714
-0.2954287677488903
-0.2990929168937758
-0.3102648569203362
-0.3161184975265964
-0.32335792578860606
-0.3286171799645906
-0.3260891962329733
-0.3432292136482712
-0.36232940261109803
-0.3916204995425497
-0.3902031636240113
-0.3779045697547953
-0.368143850751293
-0.3746455709298183
-0.3885529551749529
-0.4046714196891542
-0.41078808641499037
-0.39591104063201843
-0.3835314748136937
-0.3806624568870412
-0.38333177174981437
-0.38299023363449075
-0.37719219800509396
-0.3760038725925295
-0.37362371194802896
-0.37035374199508303
-0.36375001107687754
-0.3562515266464464
-0.350297747764404
-0.3498543770525078
-0.36224430896619453
-0.368242232996369
-0.36998431076638166
-0.372048435097737
-0.3671118455220388
-0.36982357352833256
-0.37621854085209605
-0.3753135305131113
-0.3607031569332192
-0.34398677806739314
-0.338290005330579
-0.34788935572228546
-0.35844721734562207
-0.37363070171652324
-0.3705586916895457
-0.3452702494892072
-0.31119882184305003
-0.3016134872706525
-0.3061462568342816
-0.29734073505084563
-0.2855803954847375
-0.2824697087593057
-0.29442582822717844
-0.3141341747940659
-0.3126143353248673
-0.28407814832407124
-0.2581359732571613
-0.25615919969207757
-0.2580180991302791
-0.2615874516629285
-0.26657319741024016
-0.2751227310279902
-0.2796185951922658
-0.26573003144645324
-0.25330401798866786
-0.239911174360275
-0.22495315498667318
-0.21454514162121047
-0.21693846372461792
-0.2232956751721654
-0.22172776081407808
-0.20095599963461344
-0.17289357152415424
-0.1442659189999908
-0.14346455418634657
-0.1399855469853218
-0.1423849495953549
-0.13328029993074056
-0.11451385854930086
-0.08853800024981957
-0.08771027945595629
-0.0894597196289518
-0.07518212351787944
-0.0680795400851888
-0.05900705568091045
-0.059570119760099655
-0.05238390960870627
-0.05790272923479137
-0.06423384588122494
-0.05124488839607515
-0.03999929025531736
-0.03996408609163469
-0.03893971083192631
-0.04608714477722884
-0.04615432714551912
-0.041587831392748464
-0.03086669583941986
-0.032304671452994836
-0.012948595079585554
0.0033959858233026615
0.004520023597611195
-0.004085880020351642
-0.012353226150149851
-0.006551085815413198
-0.0025482265686392223
0.0017914061493657604
0.002196117783866157
0.003549479796823069
-0.0014706721456318708
-0.003097153177010701
-0.0010221048463982167
-0.0010402705259290694
-0.0019272428966400526
-0.007950913594130611
-0.015139408495830859
-0.034778197073086436
-0.03634571360357358
-0.02166655644761632
-0.030099171077227916
-0.03844431528192725
-0.04181171879700688
-0.03683645396170103
-0.030223351223653213
-0.02440462882450303
-0.026084310027659968
-0.03464226887039649
-0.043660034404504396
-0.050685838896206065
-0.04258709426431547
-0.052004486526956197
-0.07618019355821577
-0.09984469361525612
-0.0906394303862346
-0.07265971046992846
-0.054132480786693686
-0.07135898282430549
-0.1087636019517699
-0.13185086476022304
-0.1345048230163669
-0.13715813574579883
-0.1477319784790201
-0.15888965419139284
-0.16420994799919056
-0.1557458953819075
-0.14508065139991158
-0.14745934398220056
-0.1631745126989849
-0.18519506278305253
-0.20343849022451513
-0.20202449201837328
-0.19741963499782367
-0.1914431778036444
-0.1953745097807777
-0.20950764465559163
-0.21277589986002968
-0.2164595780579001
-0.22451555836639742
-0.22686385978688137
-0.2253260196469755
-0.22996322720245532
-0.23527408419355167
-0.23606279488105436
-0.23232169764054886
-0.24052209596827162
-0.2719481157497849
-0.2985191182077094
-0.2939859294082718
-0.2726858115354005
-0.26329895893980143
-0.2685677639803427
-0.2787237412535569
-0.2775906790044225
-0.2810344479723728
-0.290579119777863
-0.31171640124448463
-0.3191177224544883
-0.31064705603876935
-0.28691538926931215
-0.27294688251705085
-0.26874340922108253
-0.2746125979065562
-0.2810976429611093
-0.28270937242611793
-0.2583961846499518
-0.22982905857303929
-0.21166092969175693
-0.21091636702165256
-0.22638124897045864
-0.23517583758981533
-0.2305942539724585
-0.22179930812825702
-0.22070072730621643
-0.2251714974669867
-0.21691174729043053
-0.20386557603023114
-0.1973342491109876
-0.18146046397349497
-0.15717096115042603
-0.16567360511378795
-0.17127701549444524
-0.17857089335848
-0.17871833949997507
-0.1723426182567416
-0.16525493387518672
-0.15868937754107884
-0.14381007411251756
-0.12032574373824682
-0.1065598627244148
-0.107714293701785
-0.11495378825559938
-0.11578130408840157
-0.08976577851193385
-0.06835290455039027
-0.05247267229398208
-0.058923230024740404
-0.0721560270213259
-0.06716257376707166
-0.05799440337809144
-0.05321010064354316
-0.05038244724859228
-0.04250669635191156
-0.021662433082337135
0.011221421474356839
0.0274468911911463
0.021813371213890466
0.01444859450102355
0.003509295699569757
0.009429021199608787
0.035552877817535015
0.06447566803732208
0.0925246690172056
0.10900896560696871
0.12459908466868311
0.15149179792212195
0.17777693795616062
0.2095491019546338
0.24741056596282512
0.30294978561998936
0.3715824226053794
0.44658858612351743
0.5035498292295092
0.5741971907890288
0.6869055592221962
0.7934559631421363
0.8895726549105667
0.973421743278401
1.0562916985687307
1.1445890840723743
1.2291580580516386
1.3188476622180378
1.3984001344012043
1.483379195670477
1.5460168593654446
1.580211902109162
1.5923751448140786
1.6084480618485457
1.6241621581085588
1.6010719184043343
1.5281965443149772
1.4290385590922365
