Amplitude
0.05421228990718901
0.002826924894331294
-0.04599949661491963
-0.08063897873911934
-0.09982708833593903
-0.12365315002299936
-0.15755630904592147
-0.18988889003316523
-0.2059581899769367
-0.22770136021160198
-0.2654748573016181
-0.3104295700102545
-0.34153321195622055
-0.3512069748731659
-0.3492956544309817
-0.35452592505518343
-0.3710114739576846
-0.3897805553756862
-0.399152615751466
-0.396335047609928
-0.40054522273995674
-0.4090676310278737
-0.3945067362285633
-0.3868730356897992
-0.40400554830465013
-0.38657122074259836
-0.35399770741384196
-0.321162570119465
-0.30632413902927713
-0.30304354678068096
-0.28353771637562103
-0.2438386980903564
-0.21080823442240065
-0.18842597862875837
-0.16694007055336157
-0.14056215121892274
-0.1059375691599312
-0.0722117036169083
-0.04485296713024991
-0.02809063617472725
-0.009348694075487439
0.015123786907380235
0.03781385039685532
0.03720031800137849
0.019867144727973938
0.010434474884149798
0.019212788508124655
0.05532502178495368
0.08551027238351935
0.08935673167696252
0.0763895508500832
0.05524863027103568
0.038264259341168325
0.0243662471924243
0.019221908288175805
0.004717678897593411
-0.02137336156877639
-0.04020692585510187
-0.045438065856620594
-0.04444516740390236
-0.057417903897842654
-0.0898965288233609
-0.13002886238579556
-0.15925411174209167
-0.16725876621103486
-0.17913861199198397
-0.2105434527923832
-0.2362485049289808
-0.24996751047947388
-0.2564206633496557
-0.2530268712910992
-0.24272170965506695
-0.2455543959658743
-0.26756240485281163
-0.2784952805988383
-0.2624706530668622
-0.2518462611597152
-0.24757317817732943
-0.2454382515181502
-0.24826901598498874
-0.23450086194775696
-0.21310343557701028
-0.19580923848145565
-0.19436493694438195
-0.1961163719437837
-0.1823154672393358
-0.15680241514928042
-0.1359328762658809
-0.1281298466038619
-0.13784814503915174
-0.13902326861028239
-0.12450449680578393
-0.09384639881130052
-0.07253170475611906
-0.06863716221793663
-0.0710009899360942
-0.05776591683278775
-0.03757429275878241
-0.011117447503317597
0.010860604643920984
0.016718173957218387
0.002765476522904199
-0.006595233787992772
0.011224439499409924
0.03336082877015065
0.03482956299385457
0.01537824033761755
0.013827478818280042
0.03147498123057221
0.04674146356315762
0.04507434354782912
0.04457916072359625
0.05024418348743207
0.0557695236683669
0.05241488608842876
0.029608123549408113
-0.014070789400129053
-0.029695123730674802
-0.020525660217584195
0.0025409392758855157
0.026768963209770125
0.042465186471574684
0.036264622202818085
0.025002371194978366
0.02031499752007096
0.029860964906854217
0.024668828876674372
0.022140185803258078
0.024103159343219733
0.04214100856606182
0.06829776621412305
0.09644010938148082
0.11127269754816803
0.11702404631975455
0.1258517401290831
0.1462477055407777
0.16442490696976236
0.18215812938802425
0.1908469048636512
0.19470870744768826
0.19582744754873735
0.19110301838599725
0.21894136249116922
0.26801338991799534
0.3016683294980026
0.3061491963938484
0.29028811980525815
0.28245509680060377
0.28997225195190324
0.30094477600686526
0.3031805009620686
0.3092124581142463
0.32395173763832813
0.35048484913903066
0.37634089281957067
0.38111961453536536
0.3566308035852996
0.3404605227988004
0.3369342850104455
0.343664562976823
0.3561269628330984
0.3643023118974179
0.3722055551993594
0.37927005080029236
0.39285795883000996
0.39774355480369555
0.3802197751798218
0.3644111668497556
0.37565440845132936
0.4044892902781426
0.4277142364143316
0.4361554455743287
0.43527721085368754
0.4396892638942221
0.4490396990104564
0.47151257626548915
0.47927563481498237
0.476531143621461
0.48578476951143806
0.49444413609696447
0.5048657636182635
0.5218448789766492
0.5309505788030737
0.5177520984593506
0.490401835210582
0.4921481885636292
0.50124539102221
0.5127369625249176
0.52655585504202
0.5130428837913513
0.49442477416944364
0.4712722517168676
0.46918991333977356
0.4585605690903221
0.43144535456538574
0.4140955090675809
0.40470046920717767
0.3929178946644483
0.3812344498011918
0.3629940834369081
0.34223265752667753
0.319029642768574
0.29225360734236855
0.26383333890409727
0.24119788571520942
0.21682968988579535
0.19908402025962443
0.18624909199427475
0.1747837268762289
0.16328277528894533
0.14759296571831051
0.11989580587887048
0.08426900234750932
0.05058177731459333
0.02869542004600828
0.03120833756352154
0.04782160858692113
0.0450327184131235
0.022588678073221957
-0.006349978131918779
-0.029247030080925846
-0.05005916404379076
-0.07031645452520015
-0.070202647890561
-0.06653485028864152
-0.06912568571818992
-0.06705066333283904
-0.05336516197706429
-0.05561922651845676
-0.06658581274174258
-0.07660621871858725
-0.07297841393620683
-0.06650424475490103
-0.058836061437173175
-0.05010402117706785
-0.033726744495349896
-0.023568607153394084
-0.019455286872811152
-0.025481521555091178
-0.03993929831043097
-0.042804853581793756
-0.032966378991433565
-0.0205937341676811
-0.01889797212236071
-0.02521050710704399
-0.041732869647475385
-0.06302450016747568
-0.07111964933615708
-0.07000973603848898
-0.07770904922952934
-0.08688945266819985
-0.07617136619302857
-0.05986473339328423
-0.05013006381950129
-0.05911523203008361
-0.07759533387611633
-0.09114701795152526
-0.08777854651724477
-0.09638084222168136
-0.0780928805242681
-0.07888168316742135
-0.08367866859199848
-0.1118953475014936
-0.12740348155545947
-0.1532756868485207
-0.16467675777176768
-0.18834633845224835
-0.20067780549138853
-0.21163777529259717
-0.21380604893762944
-0.21075630357796724
-0.22285502759618134
-0.25430535960365713
-0.3013869975784562
-0.32804414006447785
-0.315931617088397
-0.3007287909402719
-0.30164829474466387
-0.29305630363584506
-0.28350797477590156
-0.26814252452398946
-0.2534004172407702
-0.25000408610704083
-0.2622766564060363
-0.2719677417791096
-0.267242415901934
-0.24542660053237386
-0.2242968017772104
-0.22041283781871224
-0.23538463356812242
-0.24458026988304202
-0.23343856249814848
-0.2121155117354984
-0.1959531942362854
-0.18076104013085903
-0.17546672500041305
-0.1831955829702448
-0.20218532491747548
-0.20717079654628598
-0.18661260000722749
-0.16497312328174052
-0.15999420636881953
-0.15828434867026692
-0.1519374584791912
-0.13975348067670038
-0.14463245776228867
-0.15773097180244675
-0.1677575241338231
-0.16493995406119696
-0.1553682744337718
-0.14726311222220723
-0.15402784511174974
-0.15671487740968224
-0.14613796304318796
-0.15064215988338273
-0.1598151999403064
-0.16507404503521464
-0.1746182253410163
-0.17742190673606975
-0.1822945830924365
-0.1711925640118496
-0.15841994471916399
-0.15919784366332054
-0.16952439314668455
-0.18723088082167486
-0.19702927950769064
-0.20530032540258417
-0.20896758317791575
-0.21838426211877746
-0.21674728137584592
-0.22875753883056127
-0.24341500648702066
-0.2576560128657723
-0.2708601835071138
-0.2857656495550413
-0.29656763165838906
-0.292274865900909
-0.29515909539919494
-0.2933150299985178
-0.3096255641545412
-0.33279597773300584
-0.32345682197833864
-0.3011334833706268
-0.2868764502674799
-0.29563223858951354
-0.31793386376947996
-0.3421772641919042
-0.3411943890469582
-0.3250454414307267
-0.3312539564651304
-0.336311383586873
-0.3313562664091416
-0.31881776307046833
-0.3185190774727989
-0.3161062213588956
-0.32163853643076623
-0.32076391706743657
-0.31255867699471745
-0.30128868883594107
-0.2893911472111368
-0.2890709046662707
-0.28812321198122687
-0.2773981734162793
-0.25568353390784365
-0.2232966055636682
-0.18879789918934192
-0.17631501152030185
-0.18404130389661053
-0.18667714382025333
-0.1812033922433346
-0.1765059021066921
-0.1604183148797025
-0.14610564605331167
-0.14215851220735362
-0.13336779250509195
-0.13321116043992046
-0.1222107836760369
-0.11232088060083804
-0.11366494617797744
-0.11683596072043925
-0.12127530669154175
-0.11391105668705201
-0.09784203315263482
-0.10088150481649258
-0.11696632877856003
-0.12812761262000302
-0.11211903168848368
-0.08147638518774591
-0.06490251119528204
-0.06210359942822653
-0.06911688536720793
-0.07770007145480197
-0.06648159625239841
-0.06595903108345776
-0.07488604072285128
-0.06729112021080627
-0.05625566385162999
-0.049361343926190064
-0.05937103211039289
-0.06638982653621481
-0.07523519948428743
-0.07393630773269232
-0.0724897080396393
-0.08302496260498014
-0.09722388381989872
-0.1064618234318742
-0.12255930677415183
-0.13963835426377075
-0.14510911060057055
-0.14805042448427255
-0.15540853432060267
-0.1771856505969591
-0.19500963396630488
-0.2027207046608319
-0.20271029564957102
-0.19798762667285436
-0.1955370048418404
-0.2020461000360643
-0.2187186457143256
-0.2342560882392978
-0.23370729579115537
-0.21220066680856356
-0.18928643688278532
-0.17750529708167367
-0.1707921144690081
-0.17102418794291432
-0.1575050119830958
-0.15867559034512282
-0.17307802537441633
-0.17973007379305572
-0.16925031906436527
-0.13714379749909336
-0.1069929785793198
-0.10207715131106683
-0.10570097404649158
-0.09811746177381324
-0.09711286374402675
-0.09178655399017219
-0.08527205667766877
-0.06940806805035929
-0.04976046303239888
-0.039823493760531695
-0.03691163324828629
-0.03863740401430027
-0.04596238262954855
-0.047328557658771746
-0.04215506271598388
-0.02313879900484924
-0.004633896048531388
0.0017609072487435734
-0.005474026733725755
-0.015032986379511802
-0.021704922802330145
-0.034002744085875745
-0.048835727718267906
-0.0631060328259198
-0.07828667366555561
-0.08852107359936856
-0.09008367723184445
-0.07283633736453836
-0.07332648382082392
-0.09209038333906033
-0.1186768899505524
-0.14904226992438868
-0.17151383233799897
-0.16953718547376384
-0.16287326715301714
-0.16335133434176666
-0.1669356086096382
-0.178138526599488
-0.18988098530553144
-0.19722496531006467
-0.2013410537919899
-0.2101191637703517
-0.20307578834143902
-0.19085989388629812
-0.1768032863398235
-0.1801126436289795
-0.2007764535759901
-0.21834432090629577
-0.21206720341518961
-0.20697593889893337
-0.21040829061102773
-0.21902723887215006
-0.2255340648093044
-0.21775246105077647
-0.19815813459647627
-0.19028662177606168
-0.19326436363647098
-0.20866201134130916
-0.21760710619199858
-0.2076373738588997
-0.18368585072852855
-0.15617923380998103
-0.15476944754978858
-0.1819492717580559
-0.20877968232085364
-0.21242375135830624
-0.19292989303069688
-0.1689593003465544
-0.15550914638197072
-0.16055556697995174
-0.14996033761761285
-0.1515292517423926
-0.16224417131535063
-0.17938891936703855
-0.18681710580199065
-0.18363683113003154
-0.18604159148613594
-0.15926022345794802
-0.1496899690465756
-0.15276346663665497
-0.15567081253107237
-0.15200718153815865
-0.14512964745422513
-0.14296961524894045
-0.14369054823321034
-0.1445376465603588
-0.13603998781130036
-0.1355779446424552
-0.14618710186424247
-0.15442229112011363
-0.17094362836216365
-0.19023590560470188
-0.19884797100134244
-0.197059024511676
-0.189724041984
-0.1835275013165599
-0.1781339681011958
-0.1854131431238603
-0.20289134095852226
-0.2192444754029282
-0.23657469490500863
-0.24660829471263984
-0.24992079599629194
-0.23488128890604357
-0.22586745884957948
-0.21155385935499785
-0.20838481363202666
-0.22029389117092693
-0.24206086480198738
-0.2501572302918441
-0.25096127561730514
-0.23742600592439997
-0.241871572867611
-0.24993119577059192
-0.2512074836801795
-0.23591593290830515
-0.22540085786509523
-0.22392076143009432
-0.23451669057767024
-0.2614536564002659
-0.287944300588078
-0.2868295078071761
-0.2687933184923193
-0.2582555633653817
-0.2594994344247045
-0.26582617854817014
-0.25986019580552383
-0.2529142150494873
-0.2614920563113274
-0.2709747537313927
-0.27407014350387776
-0.27142292760002557
-0.2752762740476534
-0.28017641181667796
-0.28494359834515426
-0.286873759829868
-0.2762452666123751
-0.254322791919247
-0.2327465712086296
-0.21949473884156656
-0.215831319843119
-0.20684592429856652
-0.20081859510265165
-0.2041965096775018
-0.20847182999740846
-0.20391340671536415
-0.2109976275820685
-0.19954146623077182
-0.19733816260618095
-0.18609840705900985
-0.18109617663407282
-0.18478471261557675
-0.20266460620629573
-0.22131244615255666
-0.22943667486994793
-0.2343561362407147
-0.24308044109908603
-0.256512136249505
-0.2718881598887751
-0.27881303666929164
-0.2845871957788353
-0.28857407562964493
-0.29623768561928127
-0.3029696310317977
-0.305380298045722
-0.306792063158371
-0.30259213491442233
-0.30128878170311585
-0.31627246575071855
-0.34140363556689923
-0.3510130734470254
-0.34659126567705834
-0.3357328577142336
-0.3275595656924077
-0.3284482119263985
-0.3377587248814239
-0.3402053732400653
-0.33698292068830654
-0.3360016835936938
-0.3482256942318355
-0.35685184096194345
-0.35545449159491066
-0.343713240843902
-0.33443144473342085
-0.3269874440302139
-0.3274748131651024
-0.330697950133364
-0.32291834358478405
-0.3047412080764819
-0.2816554620082103
-0.26067685516740385
-0.26499538006606954
-0.27416435362668556
-0.2799440817627049
-0.26158405947074787
-0.25478844574396314
-0.2577276477337479
-0.26643657133656823
-0.2702373176117867
-0.26333524178464224
-0.25336347315398333
-0.2592469652185065
-0.2739735008329732
-0.27313829510212423
-0.25034244787098403
-0.23641808155511315
-0.220392883378299
-0.22425385621492375
-0.23947487269489073
-0.2450211773525867
-0.23572921175409237
-0.21528818138761358
-0.19318862967273154
-0.1773987683444056
-0.16673560009496585
-0.15269585587288112
-0.13227252673873346
-0.11222692728351195
-0.10908848678408435
-0.12352126430882994
-0.1345256023874033
-0.13269981979582487
-0.11627265562409625
-0.10544506963511666
-0.10027789984640229
-0.10510371682339213
-0.09434844788652649
-0.08393732970034273
-0.07636576067161399
-0.08083878727113171
-0.08763700285613257
-0.08917149054516228
-0.07967777847415358
-0.06375938057474974
-0.056386980074975154
-0.07740484252359933
-0.09080385707296992
-0.09992997273827893
-0.09682761662624102
-0.0921447171957382
-0.08949925325437588
-0.09890605792947879
-0.11266944078690994
-0.12888048211487674
-0.13768531553577076
-0.15973544897807898
-0.18515701853718874
-0.2110859680282114
-0.2279369867606501
-0.23191611668612455
-0.22624268972698405
-0.2248126557689235
-0.23816291504399767
-0.2600460679445013
-0.2762817218434347
-0.2824574195769809
-0.29033879505511895
-0.3022382456593432
-0.3192560421715857
-0.3180902190484331
-0.3172574524438725
-0.28829401756352147
-0.27659960039440784
-0.28730996191706676
-0.2975045027272855
-0.3004551435686965
-0.29403123931886355
-0.27642803829359763
-0.2537960272759046
-0.24420813318684653
-0.2306654111909333
-0.21510947520061294
-0.20163818785568158
-0.19467377038845013
-0.18126246306183308
-0.17074346095098272
-0.14470138717490094
-0.10609459824595167
-0.06887761937055757
-0.04975947773761282
-0.05141745927896609
-0.0524241757778099
-0.04020167577831959
-0.021088687962416884
0.01170386744260251
0.02927072740640623
0.047881893500198766
0.0612406320726781
0.06520398064544027
0.06083694494952442
0.06417996388027825
0.06963226059639824
0.07314573551078186
0.0743627229787974
0.0683780834140019
0.05611553552603463
0.036394191726626675
0.019050553144526437
0.0023567213061290505
-0.020877020553700047
-0.04041638736656748
-0.055763446838035594
-0.08073573667133638
-0.10807017212486353
-0.14451861465218424
-0.17789372798393602
-0.19965374004666428
-0.2168069735145838
-0.24367623456139526
-0.2774900604471129
-0.3096774967629688
-0.31915869646382405
-0.34131453699534076
-0.37156105026410713
-0.3986155823517014
-0.4148760519862618
-0.4274103563382199
-0.4372092144616901
-0.4568885450949531
-0.47285292832880865
-0.4745932847194389
-0.4656747290583966
-0.4426824922266436
-0.4236028423133416
-0.4084586332394018
-0.40067062562938
-0.3713539061385449
-0.3160764065908411
-0.25211126093029923
-0.19341218145189767
-0.13138632786523244
-0.06693310728814875
0.007563242283330879
0.09999796156529812
0.20268151888436148
0.31339969756325536
0.4314510687668103
0.5646703396621482
0.7022742597672106
0.833786356678991
0.9514832213975455
1.0503995084144095
1.1506093158400186
1.2807524505244752
1.4273828730015166
1.563352566790589
1.6832136859532711
1.7778940387872322
1.8627746350287226
1.9264258900259803
1.9635666836309862
1.9781174660835734
1.9508545575771206
1.8980006868474941
1.8285027509104075
1.7290782710445498
1.601137966337901
1.4659713979160345
1.319581118911202
1.158007592993736
0.9779358850575327
0.7864566113578279
0.5818365538242436
0.3767057678707799
0.18035333989594451
-0.009212053705506889
-0.1884840180885342
-0.3386990165045456
-0.4655124251733892
-0.573065746700852
-0.6542270281473525
-0.7067694423099897
-0.7513805486668997
-0.7871140089589592
-0.8167219019485807
-0.8356728907680946
-0.8330710227547068
-0.8227845466642394
-0.7845527902525813
-0.7497369209823939
-0.7094686108736071
-0.6726302196687903
-0.6328974945140854
-0.5937614809698981
-0.5496071664601719
-0.5159218082605289
-0.4926732544214352
-0.4728509692707227
-0.437274475128156
-0.3890717620090758
-0.33994246001210077
-0.29336909446168336
-0.26505723396743686
-0.2289170816272726
-0.17900464678145014
-0.1282953207351984
-0.09372539052917318
-0.06200873663980083
-0.021672791837222434
0.025350799621882098
0.06586729662813123
0.10075155707241033
0.11931906640856677
0.1298454066593475
0.13851364215501089
0.15094277019705457
0.16547633070002785
0.1768457360630716
0.17159371776293872
0.15431799711101582
0.13210777712316632
0.11149103788201713
0.08225945134489472
0.04859205770565923
0.019592475457282602
-0.008108498744248398
-0.02258750807019002
-0.035082779926237435
-0.056501732524907464
-0.10322396989197416
-0.17147332419222
-0.22664276318272852
-0.26250037911109386
-0.28380095157722884
-0.30964814457303236
-0.3426789781855979
-0.3800546373906359
-0.4116344205972615
-0.4389000525310761
-0.4783166020229068
-0.5219709653995738
-0.5613774022948762
-0.5887009235013289
-0.5995059138498371
-0.5933680795425686
-0.5924900754464555
-0.6041676147701882
-0.601869563810795
-0.584437674779911
-0.5525881510971623
-0.5244727736290812
-0.49875247167521564
-0.497316424653248
-0.47647798629256355
-0.4365223662550129
-0.3899662088924114
-0.354839777516806
-0.3217254036639475
-0.2839633121230584
-0.24161384062692623
-0.19809586403029614
-0.16140261787129487
-0.145622785687205
-0.13126553928531368
-0.10706276806543936
-0.07728883374998459
-0.050160916543887914
-0.018000499038109033
0.002793926320707977
0.01569191290360779
0.027554516946998026
0.03917586746315137
0.04803050793982498
0.05102021822082229
0.056680190384008365
0.06198646592437755
0.07035909665112543
0.08891414964456737
0.09550471376972972
0.08754361914697506
0.0652170037078883
0.05009579052962601
0.03996904928086485
0.03355812827412596
0.02227365016296441
0.0021127725824046594
-0.012307501556593593
-0.009725551788630658
-0.004515462678903494
-0.02051742827727124
-0.04648837288399738
-0.0779118302691218
-0.09716581611211753
-0.10617742986940656
-0.10964166090266719
-0.11929567228719114
-0.13194917938087566
-0.14321780819051344
-0.14843943443959495
-0.1445055704576964
-0.12833560120886664
-0.12159412137964111
-0.1227804688966345
-0.11577195153957506
-0.12230934840363158
-0.11960262297359842
-0.11509228065487351
-0.10921779773365435
-0.10762129902125252
-0.08666202440800244
-0.05566549383116981
-0.02274293830272338
-0.008520379503617259
0.0008585421632702719
0.007961895293091667
0.02238167456614508
0.036323860515176346
0.04139450081848099
0.04813197608023673
0.042371473182263496
0.05207606129949848
0.0744054810427067
0.09677301175670694
0.10203382987220129
0.09564434024972797
0.0910146351222407
0.10401533140784833
0.1236818246679699
0.13540526496613278
0.1346633730889648
0.13007049408303997
0.14062943218938428
0.15178687017189155
0.16181514326716923
0.1680779282279916
0.17038464795056668
0.17861703220392233
0.1931966888233116
0.21057560013656945
0.22262355483697213
0.22730651167859783
0.2222763157319603
0.2295866312520813
0.2422888593938289
0.25464135965208584
0.26088774923356983
0.2558664277743555
0.24935246905924383
0.24774799958666702
0.2562184115239439
0.2710638488713818
0.2818560169759302
0.2784577881073821
0.29374645832331114
0.31786608377210124
0.3449182387348795
0.3390914709055411
0.32956723007842925
0.3241625644070383
0.3340501021900353
0.3517890307257731
0.366890407657574
0.3728380345191309
0.3854000683916638
0.4020451877441939
0.41537142387191284
0.4231780787115241
0.42785692631725775
0.41137059844711
0.39842112116106704
0.3954192025497397
0.4121508085794986
0.4184449537076697
0.41832668068228773
0.4072945340669677
0.3958168264980574
0.379730260228087
0.3756367387570146
0.3705507536761464
0.3612627359445787
0.3637967950561034
0.37129672020023324
0.37355358354007695
0.36737852325157033
0.3562949603301177
0.3429070190108158
0.32828657896524455
0.31837900115703244
0.31942329642865325
0.3190300481169514
0.3112021436012759
0.3054875478433231
0.3022598792747682
0.3015665484618985
0.3073998399655066
0.29626492793619574
0.2724128606165833
0.25502384626213165
0.26539089156566575
0.28786027711868273
0.3125544976600206
0.3155383215665937
0.2966598730384224
0.2987774270285906
0.30675455834310633
0.33748391400192157
0.35444583074184705
0.36993877600181313
0.3813044286069901
0.39198653903876635
0.40421022053975714
0.4144076561100473
0.4174933193867603
0.41449583587508987
0.420494869322804
0.42983583233933254
0.4384087717105811
0.43846285964938075
0.4222701595034864
0.40104693719890516
0.37749074840648184
0.3631752714065467
0.35352792457474924
0.33851049132957406
0.3169612476391067
0.29110149316669065
0.2766047238285138
0.25712684161066035
0.22977285498645467
0.19166792990889253
0.15216135181823928
0.11817640038595895
0.09024050353749662
0.07316275343089423
0.06168839647422123
0.03561310043847572
-0.006347868501610008
-0.05205574410522894
-0.08083399967822151
-0.10283675584335643
-0.1279257500814748
-0.14858435745746998
-0.1658585521600059
-0.1692188833234
-0.17989485084407875
-0.20174634545802028
-0.22950429223492752
-0.2554851469821612
-0.25982653078322165
-0.2571765542830854
-0.23993447895141123
-0.22402379815395956
-0.23027678189405384
-0.23377715736442625
-0.23221373634858875
-0.21719374687008736
-0.2044512041586471
-0.19142761926508756
-0.17649423013779808
-0.15559241943890387
-0.1335215339640471
-0.12210484821132891
-0.11943573111372142
-0.1135363776250812
-0.10188475023332316
-0.0886651305668472
-0.07133829623564565
-0.0534553799123903
-0.03763671856230868
-0.04601508720378996
-0.03875671454177287
-0.03337600641507187
-0.021426239572224497
-0.01183081478259667
-0.02477940291105358
-0.036188991247363675
-0.0378198533493213
-0.03361403121504569
-0.029015551983542175
-0.039515880621244094
-0.055867372767118464
-0.06544593711606994
-0.07666553454017189
-0.08236147976546378
-0.09580134519990807
-0.12047692353718602
-0.1467501421377757
-0.16375691618549057
-0.17253166948972481
-0.1905874517538731
-0.2268957667760793
-0.26296945810645894
-0.2833809292569255
-0.2840037300365734
-0.27811784733970635
-0.2793228259869513
-0.3067271089916202
-0.33124177108072017
-0.3518709067991486
-0.3624502923434921
-0.3611077334233456
-0.35758699374630654
-0.3573794619410706
-0.36019789367167854
-0.3639426828585879
-0.3531048343396323
-0.35247230475899405
-0.35419588508902694
-0.3574578631375585
-0.36328240482156393
-0.35927560385662627
-0.3480028952542405
-0.3421042667679633
-0.3472031503667464
-0.34176374699541323
-0.3225571829313003
-0.3037438587603283
-0.28574535591993827
-0.2891149670049256
-0.3044901886108966
-0.30235622486847463
-0.27912342476649527
-0.25254888394519365
-0.2333560565058666
-0.22828583334069033
-0.22727973437433077
-0.2205687898544869
-0.2014203199932949
-0.18688926362537422
-0.18486211173362024
-0.18673428945109072
-0.18572096545475847
-0.17929989065872942
-0.17073893857138508
-0.1629948586832214
-0.16268232431321308
-0.16878519549297344
-0.16594517526764366
-0.1604724664743059
-0.15898684436228216
-0.17147122591813257
-0.18258878344752022
-0.18555712960808327
-0.17940346655724063
-0.16805047206941265
-0.1560452255285986
-0.15222196690710707
-0.15719125591184183
-0.1523546333109403
-0.146288535652262
-0.14361799699619768
-0.14654187245802835
-0.1481185311306871
-0.13775755919251786
-0.11464528911287719
-0.07431625978528121
-0.060833250651015906
-0.06272666609953402
-0.06547938703234177
-0.06006887310341172
-0.0371667970920332
-0.01551623831634464
-0.007751656939179933
-0.0127675795122589
-0.011138935442572006
-0.007535714749575769
-0.0005103804759888438
0.005297680025481668
-0.006023909586229214
-0.02473515033184166
-0.029479833986846227
-0.0263449038877914
-0.022311353146571983
-0.033798534773817605
-0.0634724743962978
-0.09719490452264093
-0.11989238868997099
-0.129289683184111
-0.1313339930867867
-0.13897626145969832
-0.14379375176845435
-0.15505261285837063
-0.1664484157044637
-0.18296283038416467
-0.20286234106240134
-0.2222786871238713
-0.24589249857739665
-0.25489493386930034
-0.25917264930012124
-0.24299282986457885
-0.23732830160616772
-0.2441812394984416
-0.25611568058972684
-0.26694021147651503
-0.2741511070845129
-0.2709997873604686
-0.2724323507525878
-0.26931678484731925
-0.25834874226564036
-0.22526784987328818
-0.1936823783217992
-0.1829566507689443
-0.1816610443261295
-0.1728982981777403
-0.1504747157236974
-0.11096358458788332
-0.07353756113627556
-0.0470085657447089
-0.021279989486730055
0.006413399960221719
0.03425565060825172
0.055548364090469406
0.07061578353270995
0.08863970393075044
0.10843849158884958
0.13372875918589514
0.1636691532220892
0.183709087251864
0.1857322997297815
0.1729422438604826
0.16596775188691382
0.16655146104921587
0.17799704254332346
0.1774011431391059
0.16966696529523817
0.14966504793119415
0.12908685949951057
0.10562318142493003
0.08951153433310749
0.06996715369799343
0.032269581096746
-0.00440050491270343
-0.031517305292246264
-0.052433978439434516
-0.08116579516753912
-0.12469509336585649
-0.17351570943276343
-0.19919620169387395
-0.2175519807117036
-0.237078406227294
-0.2601760670056553
-0.2923100789463328
-0.3139400801496443
-0.3336218385577811
-0.3489511489104703
-0.37098011286837973
-0.3946202453928223
-0.4102413926873949
-0.40520001736124694
-0.3910002017215414
-0.3590473636022337
-0.34625801212011675
-0.3596863450628025
-0.3777447313422202
-0.3721743177466009
-0.34923998054378597
-0.3201282747727533
-0.2975883779922731
-0.2730424833585366
-0.24862402306173778
-0.21916970172714903
-0.18930423325832949
-0.16031420182773315
-0.14112907725857357
-0.12512442816024322
-0.09408398416015044
-0.053287655268121854
-0.013197042324025725
0.02092490673778381
0.043220785854613815
0.05182077339057889
0.058612094822077
0.09107408927448832
0.10592249334915962
0.1313160203111084
0.14906858362521822
0.1562934310559232
0.15899670407849736
0.15376931447583853
0.14121459390351757
0.12564329020800657
0.11446282304469022
0.10383388931330292
0.09850410488798925
0.08190048519213057
0.05640755449024396
0.022003226904236565
-0.0017734385177992256
-0.02587196717298565
-0.05633653866470619
-0.09400541751770551
-0.1308538834804209
-0.16739317128235845
-0.19650222427664865
-0.22906601363876136
-0.2686525815606388
-0.3075509888068646
-0.34691651687986397
-0.3732781742988459
-0.39088968104008864
-0.40128792869583957
-0.41794412690158356
-0.4384976732832426
-0.4655095400469531
-0.4863240974672303
-0.5054174376353167
-0.5053383738226858
-0.5013321247277011
-0.497092513484848
-0.48079434721169845
-0.44981001515838365
-0.4076562487539703
-0.36460225464161533
-0.3285123364057771
-0.2880591417421818
-0.22584190748679311
-0.1531705065181089
-0.07130631544262238
0.01847202221251757
0.11426289600531603
0.21568257417219888
0.3296680047976746
0.46193723839837075
0.5901403672654609
0.7102480678556357
0.8212982247393285
0.9476766558923544
1.0863288962841176
1.2165288686289577
1.3316184957486905
1.4268042702340207
1.5214361374934744
1.6089636606517852
1.6813500386672464
1.7351761881664156
1.774082425046213
1.7904589443735321
1.7861959070516105
1.7470491419992729
1.677731644260578
1.5817711744433596
1.4608974929320637
1.3483016505803609
1.234479612682009
1.1172745416208356
0.9905822348686667
0.8193242849098639
0.6172590470022469
0.4192081309975692
0.23314247527961982
0.06672677550959304
-0.08428066876469988
-0.2204690061099061
-0.36136036513444225
-0.4578334412293769
-0.5462312948950194
-0.6275222564700315
-0.7045319056594207
-0.7596690425218922
-0.7921569146335984
-0.7835521026088187
-0.7654906276204765
-0.7382117748378402
-0.7349465986723223
-0.7260984841928445
-0.7196393301664676
-0.7119783087556698
-0.6983358715327411
-0.665723421191193
-0.6341374646199185
-0.6028495723904492
-0.5619996862853978
-0.5218882963763286
-0.4897813821540289
-0.47143292050203683
-0.4600958312202806
-0.4398752343556691
-0.4098323643635942
-0.36780775429566204
-0.3256756651070055
-0.2852333418760175
-0.2510144258955205
-0.21563840023286607
-0.18055847746651624
-0.13958055776288764
-0.11578496023117969
-0.08523514410014951
-0.0642509796626515
-0.04379861345051021
-0.02061549190453733
-0.0017870587415506898
-0.008713485970356231
-0.002041046742919036
0.011837665841693526
0.020453470642166894
0.032418575097831304
0.02127635512309902
0.0023993838815865916
-0.01400659084013759
-0.022294371421889014
-0.026870367029760908
-0.027854592287645724
-0.0473266920453857
-0.06433006719229978
-0.07438017666797839
-0.07359904447612237
-0.08404597168415483
-0.11130331604526329
-0.14844608415509047
-0.16872060392124322
-0.1743719810550397
-0.17162336570874376
-0.18227389683130873
-0.20158878601182334
-0.22393407178739658
-0.2412521549659848
-0.2482505485505116
-0.24911616317699417
-0.2443941230119061
-0.25051814205556544
-0.27722895996532226
-0.27783354343688393
-0.2660798554906563
-0.24261333129440465
-0.23495160144387275
-0.23309526926824162
-0.23713118365524294
-0.22427406168811967
-0.2095912182758747
-0.18863135884925805
-0.18136545336911292
-0.17054316357651642
-0.1526522138459464
-0.13639070805795658
-0.10909794533296847
-0.08771379092419261
-0.08581987399835055
-0.07762927926363178
-0.06115239893131255
-0.03347762608677529
-0.01640309701952674
-0.00028644800838541565
0.008962164932952287
0.013073038004586009
0.028436400363660783
0.038193439261285635
0.035874300995852954
0.040351146959995234
0.051590549990707016
0.055536024191400676
0.04852044881979956
0.03238324779879023
0.015385405938276277
0.0036644737218023997
0.008557615579830553
0.014559268556958575
0.028450501067608096
0.02589547774710286
0.009115054021862383
-0.0077619354509585415
-0.02463824820937638
-0.028595647426314597
-0.022886089919609123
-0.022050470246979027
-0.033915593322305024
-0.04128596255331602
-0.03917413023754244
-0.02930899407362606
-0.008540887538779372
-0.0158367712868544
-0.0337153794716108
-0.05172072658814903
-0.04414635784800559
-0.026490045021383725
-0.027685002620353106
-0.024796666678695848
-0.02907731428599565
-0.025545139522031263
-0.017537283283954735
-0.01969119812317025
-0.03444742418382185
-0.034350252762656866
-0.029181985913575792
-0.018358017967564536
-0.004353267367452853
-2.5391729414839877e-05
-0.007558321508800399
-0.004424350567819525
0.013589434219701388
0.0363489656805335
0.047308083399632946
0.0503631867054547
0.05184979894836392
0.062374351185266165
0.07148697449077199
0.08308055329429541
0.0851809690027975
0.09328018922566544
0.11036141711476918
0.13758028544805864
0.17121392928562051
0.19899968923687766
0.21691928407202005
0.21302594603466823
0.204673990329408
0.1997641817302074
0.21718951618474863
0.2306864815610612
0.24542960579061202
0.26141262474884863
0.27527937713205136
0.2873422978129654
0.2884604679132959
0.2737714264646023
0.25855901753140836
0.25963841820107086
0.2727740677231582
0.2882421905343979
0.30212107418978035
0.3046945218083623
0.2926575303798488
0.281016786406978
0.2902734134439781
0.29240949231904856
0.30609642665610265
0.30972448969249483
0.31341926002813797
0.3248633849807637
0.3386154698107158
0.34282295642182353
0.33386912609149894
0.32247574578813376
0.3224118060562225
0.33126822726600863
0.33778129721220534
0.3346490000133477
0.3377557107901993
0.3184271686762858
0.3114560409154793
0.329963077215675
0.3449516510024761
0.3509166875434292
0.35333342728344735
0.34546575327775525
0.3642102832047394
0.36467716782794135
0.3697175391988808
0.3704427663657432
0.355825228695644
0.3493177378070912
0.37467652626359593
0.4092728123542761
0.42803605192765604
0.42969807899492873
0.4233668118611452
0.4270010761378153
0.41828089134804597
0.4142540495950692
0.3993195526538171
0.40212769916955765
0.41562934532298124
0.43338998773906084
0.44714882833125413
0.43705400381523407
0.423844650793713
0.4157536823502028
0.41735739592412846
0.4323218659740903
0.4389902779287813
0.4340202373198123
0.4149895793527377
0.4041983293233326
0.39831741301973406
0.40134521452295663
0.3889037235030861
0.3747622858165272
0.36079128372295
0.3525245754861854
0.34390104119615283
0.3334373030646528
0.3114105119730281
0.28579609763114705
0.2682299448218447
0.25936027738980927
0.2497625874961529
0.24191044679395
0.2202696465797289
0.20225903644133236
0.17508264471135565
0.1613381819741656
0.14303269168265945
0.11773131999744241
0.09520051313010647
0.08886361708782095
0.09321932234649637
0.09604809735331961
0.09428057881565886
0.07507811392808698
0.051536497005428505
0.030644875807727543
0.026407969178983373
0.03146695683641427
0.035104294638169914
0.02415975872059453
0.01568285480820402
0.01268563619355065
0.006279412186520422
-0.014559621038495157
-0.02911734997327018
-0.03620758449292169
-0.04196524345200858
-0.03970549568774051
-0.04654218102417037
-0.06585309818553894
-0.08026107006953867
-0.09221959214241905
-0.1011258632074948
-0.1082031910993926
-0.10917718766942916
-0.11990901276562742
-0.12940129069590012
-0.1324501182485448
-0.13788457120049985
-0.124929561265385
-0.12498834600536832
-0.143522744846947
-0.16096910734198733
-0.17210412418806584
-0.17567005452373424
-0.18169909199816045
-0.19717158713269164
-0.21808257469485723
-0.22455986763601482
-0.2266382242303807
-0.23343904490111572
-0.2485935511444583
-0.273294851397341
-0.2974488278623872
-0.29723326640670694
-0.28544911088239194
-0.2855823595447396
-0.30128853093094926
-0.3136463546013423
-0.3275416857421599
-0.335048594440927
-0.3251942643463888
-0.3163054444068978
-0.3035211378930432
-0.29296985463020353
-0.28498555453671576
-0.28265157792540047
-0.27684742504572535
-0.27371233881426216
-0.2723682386168549
-0.2673603607762048
-0.25781134344906953
-0.2501670084728069
-0.24751523589666594
-0.2505008282372747
-0.25366304521120575
-0.24818147617707081
-0.24293138843066553
-0.23274694237546797
-0.21673024262741492
-0.21503467223613357
-0.21942919841404038
-0.2164901599926588
-0.22116847980636034
-0.22643874251562207
-0.23045827370454514
-0.23565184327818844
-0.23742110582467735
-0.22170367505762184
-0.21196772909184122
-0.2094016765212187
-0.21397052689289617
-0.21221018094916666
-0.21232112062025862
-0.20877082666143018
-0.2060967047154934
-0.20792110487195645
-0.20749212514343113
-0.20629886023461147
-0.2082740537183472
-0.206367786438287
-0.20451934985332665
-0.2063669346232466
-0.20548304141544346
-0.19727597839614
-0.18631392327120788
-0.17808588676111753
-0.17595025993433622
-0.17442138509960947
-0.17686860728486123
-0.1759860609787157
-0.1733224827969236
-0.17683962205461368
-0.17253221083650402
-0.1665391608492394
-0.15645823117069194
-0.14568779457043182
-0.13244050905248317
-0.12194889291945253
-0.1301264704090802
-0.14633784122980678
-0.1446887329409058
-0.12400083350394282
-0.11513482813127203
-0.11660153674497438
-0.1189738279452409
-0.1241109167451685
-0.12227104070858881
-0.1119462133881389
-0.10932171835672337
-0.11287759236916214
-0.10369359258184484
-0.08725563805057998
-0.07819796680966656
-0.08382476909210156
-0.10594135401485417
-0.1347513319765489
-0.13756622316268388
-0.12929727597282237
-0.11691746500528824
-0.11044782537562378
-0.1202117814154629
-0.1284563295499024
-0.13695739614681168
-0.15115253711337073
-0.16946132573199515
-0.18877907233529734
-0.19501783169887774
-0.18721467175239426
-0.17539638710098177
-0.168679130305906
-0.16489376291445249
-0.17194747279916817
-0.18737877244855985
-0.19530635696552234
-0.2009121860161134
-0.18405780676517983
-0.1737427931186703
-0.16479681495030934
-0.15419319096973488
-0.14379503376621383
-0.12845373341809438
-0.11370757188606706
-0.11669658692762731
-0.1255759640911388
-0.13155674293722636
-0.12158117258828406
-0.1030395037626181
-0.09034208524931929
-0.07867482353639442
-0.07237775255081241
-0.06358298216949788
-0.05143855989409629
-0.04912607394466871
-0.05364912696037974
-0.06139544218762891
-0.06416898549699787
-0.05681814685523818
-0.05096716495274313
-0.059757733141815
-0.08777839763341687
-0.10085371172563722
-0.09806117140667174
-0.07968969872213089
-0.06341309543257223
-0.06750666306335112
-0.09040207375151674
-0.10366928793169108
-0.11518474310284448
-0.12335855439453333
-0.132393252173648
-0.14190941207126806
-0.1438951363915227
-0.14315270094438343
-0.1417367055519871
-0.13529338448919753
-0.14052595984073535
-0.15247384381154658
-0.16587482033459272
-0.1696733554453598
-0.16563626388645206
-0.15370616980613605
-0.1548892059286925
-0.16578740355886126
-0.17538302313543783
-0.17541445393668284
-0.17410870251436858
-0.17695676094339297
-0.18244152319521764
-0.18569963215237997
-0.1757748703759249
-0.15972522642468356
-0.1485851666633104
-0.15522889258452277
-0.1702621480057961
-0.17605854662734635
-0.1717814457877844
-0.15812497869967784
-0.1489088355044223
-0.15276757949477524
-0.15911211838365039
-0.15521717954190659
-0.13964689312701603
-0.13171334584553393
-0.13241518037961253
-0.13114982105389875
-0.13043004324280016
-0.12116517275577937
-0.11103973602886993
-0.10742381466717442
-0.1155413915247982
-0.11924488382732219
-0.12129547567817728
-0.11895029423713163
-0.1195253384061236
-0.1309356876769365
-0.14247084828705542
-0.14951289295888545
-0.15292671417542275
-0.13953068321442252
-0.14312893743478702
-0.16364571665863162
-0.1866565160269806
-0.19834197751200963
-0.19708513103546893
-0.1937778802319141
-0.19961608437876843
-0.2178617024135753
-0.2356049351775063
-0.24695753209745575
-0.25213863938187786
-0.24862649907066997
-0.24794326709529785
-0.25429508698347497
-0.24931519054105059
-0.24424659932681764
-0.2506477222742074
-0.26269377164520424
-0.27731750469048283
-0.28047735380099764
-0.2837763171757216
-0.26953353208927616
-0.2560875991895647
-0.252327695580324
-0.25372590481449614
-0.24966021508126524
-0.24477461196918482
-0.23242937720493795
-0.22399504229964884
-0.22321796702630756
-0.21950559333589792
-0.21172736655966704
-0.19661739887856947
-0.18525158457701357
-0.18870385715870058
-0.19119103861390324
-0.19523483339779873
-0.18778819441045608
-0.17074994255382778
-0.15547095236832498
-0.15787077752124995
-0.1602922849152908
-0.1710067282004727
-0.16806441721539506
-0.1645980995459507
-0.1590822617836525
-0.16523861675236098
-0.173281397037473
-0.17799222753667673
-0.1662092510626195
-0.1726716021331295
-0.18267512190442126
-0.1982924281578702
-0.21029952773155203
-0.21343483123885656
-0.20548490582002446
-0.20895190482251974
-0.22284003551151682
-0.229675477682419
-0.24402766002400197
-0.2588028529199455
-0.266301207868917
-0.2756118351177896
-0.2891167283996794
-0.2826564649993019
-0.27815839878907445
-0.2694841233009136
-0.2767479490667246
-0.29047349129979194
-0.30729724257247193
-0.31745715031554744
-0.32432253110570813
-0.32883075010894464
-0.32948675891894813
-0.32907594222100855
-0.3224570826101807
-0.31120902969129444
-0.31431021555546745
-0.3226691596809883
-0.3354370160531265
-0.35024133377987604
-0.34670632491582515
-0.33375096375743507
-0.3267009476929589
-0.3268419441994305
-0.34003300376341145
-0.35137741260874983
-0.3493290941377628
-0.3348464169418961
-0.32474814008385655
-0.3276053515933598
-0.33489141376604636
-0.32922086749588775
-0.32310421716321325
-0.30798668053954004
-0.30337865575629863
-0.3177959382995431
-0.32221154479263453
-0.3104774821052084
-0.29017083057483645
-0.2767966888319257
-0.27609010728687133
-0.2769986225416234
-0.274265117254197
-0.2672084824688531
-0.2585043186486807
-0.25998426719781476
-0.26273194734207056
-0.25783495008007684
-0.24676143487206204
-0.23983552080097129
-0.2391495648904649
-0.23887028038585095
-0.2511779199309968
-0.2525592886472391
-0.26467489675791783
-0.25091101261319515
-0.2381375110337668
-0.22760193581392785
-0.2178160451789407
-0.218897764635921
-0.2202239070015477
-0.22033477176298166
-0.22388160173808183
-0.2297243259683304
-0.22116526288533722
-0.2074491048644497
-0.189278671452668
-0.17346088850356245
-0.172294858249789
-0.17793701750576763
-0.1718593707426853
-0.15475328198626512
-0.1373732075376387
-0.13870428415417632
-0.14506991100621855
-0.14949579804717333
-0.14499544113634574
-0.14196319050988282
-0.14284551364713885
-0.1421405136386618
-0.14196068624380984
-0.13433377946763694
-0.13019293569943516
-0.1297768990717778
-0.13422667567485067
-0.1541308528244189
-0.175959451435486
-0.18129017331050437
-0.18495458180549307
-0.19140233386283215
-0.2032474312603375
-0.2115051617192844
-0.21451390318940494
-0.22007334443351334
-0.2201185893131319
-0.22917210123988796
-0.24803210532076464
-0.26530040505951386
-0.26653902202253427
-0.26143096966429874
-0.24929911306877264
-0.23955311969010398
-0.2513855004704233
-0.2634216313896941
-0.27139514262330444
-0.26190480835710106
-0.2554418177073189
-0.24047564012746947
-0.22746634916575503
-0.2104140255355841
-0.18791350927941147
-0.1756644659870369
-0.17992106672875274
-0.17368783167842805
-0.15469736455418262
-0.12160576986869973
-0.09809757531040393
-0.08253217383428466
-0.08486511480987341
-0.09612960494915473
-0.09087496362817633
-0.07690446018972845
-0.055602168970032305
-0.04542746134539762
-0.032782240840919505
-0.020528653235028248
-0.01913747325335701
-0.02196857517602181
-0.0351748212586948
-0.05298313327957408
-0.06501740243673322
-0.07064036915069635
-0.07407097076989315
-0.07065250868814486
-0.07279162548083876
-0.07547654221522483
-0.0861838244675176
-0.0922282864308659
-0.10806440581390658
-0.13500794663160864
-0.17100363804378999
-0.20269398693185658
-0.21793383092556834
-0.22654430427115885
-0.22552832654363467
-0.24698375900653577
-0.2744938565377336
-0.30843439171446907
-0.32752727584207125
-0.3382793210833833
-0.3374510446223084
-0.3437959317561078
-0.3705989507938516
-0.3756331371407161
-0.38108837440470333
-0.3728711797288345
-0.3665198959178659
-0.35990615540393067
-0.34635702055595574
-0.33662622980984663
-0.3103736841865071
-0.2811629407567294
-0.25984092611698556
-0.26063921905635967
-0.25661883340890146
-0.24436087757121053
-0.22168707193023127
-0.18887705249986395
-0.15171634540039697
-0.12759568780791855
-0.11071911559640506
-0.1004794615155015
-0.07521065764249493
-0.05779233437736896
-0.03996670695857392
-0.032685476088306416
-0.01850144725721474
-0.000695189544722704
0.018394491976737253
0.025472473485815043
0.03565526328089326
0.03876561086004771
0.03351193235626333
0.02871028912354355
0.031384111490007
0.03150668025897269
0.020615529568361716
0.011341796036425194
-0.0016511261742490338
-0.012069078054221468
-0.045321677126035076
-0.06301081493066601
-0.0883533645116079
-0.1256231975948671
-0.1638169219230183
-0.1983241859666239
-0.22330313746308228
-0.25060473722557236
-0.2807875211512087
-0.31776989408730166
-0.3471687163444841
-0.3805517653911787
-0.4114996448272745
-0.4296473556182953
-0.4426596956266573
-0.4582307567406966
-0.47645839709672144
-0.4892369111874058
-0.5010102411335043
-0.495206717458519
-0.48459149062255436
-0.46305265074225893
-0.43916889874573445
-0.4191205550469213
-0.39600829347767785
-0.3654148230498119
-0.3165534448873886
-0.2600349383533596
-0.1903303164521892
-0.12757397952572075
-0.05591817439564147
0.017270681998135168
0.11359835547483657
0.2125459119529014
0.30975966154370294
0.42651608467695373
0.552662557619607
0.6814103727098014
0.8078139791288859
0.9187056775851102
1.0265727337139365
1.1320274419460643
1.2506650145138516
1.3618008484648059
1.4780495862199963
1.5641560566366652
1.635868415840138
1.683955684719904
1.7157102151704486
1.7265685758019977
1.7095713256314709
1.6593293601821688
1.5756845103191284
1.4786603824130613
1.3770287617958856
1.2713582577017892
1.1463819694888135
1.0121898648935228
0.8669953874908274
0.7093371980443735
0.5554683228655715
0.38747442741056215
0.212774318375457
0.0296319770452754
-0.13989167109971015
-0.2804596010378874
-0.40421436139923667
-0.505009278908573
-0.5877080510615548
-0.6630012484538795
-0.726049101099745
-0.7760149071996263
-0.8188143181724926
-0.8485031054696925
-0.8533821096331354
-0.828509919610395
-0.7952335817482387
-0.7633491715938083
-0.7454436485090931
-0.7431616700668697
-0.7246222838369404
-0.6939925395123179
-0.6579174731031574
-0.6249065930066944
-0.5803073670853874
-0.5424501367109363
-0.5016123612712682
-0.453581318296721
-0.4106349735235398
-0.3762090134718479
-0.33573713745791506
-0.29173913408165447
-0.24581167582429095
-0.2022854001185401
-0.16242231004203314
-0.14546725629613796
-0.1306640237134265
-0.11187476807450757
-0.07835182763176665
-0.03731651232990291
-0.006938130820604707
0.005334016236024695
0.0018564827761167635
-0.007648805877715233
-0.00578917190270126
0.00015183179010136883
-0.010190471081598398
-0.031203152618470405
-0.04289354196786798
-0.04537434463125252
-0.04513436690000734
-0.060534535696747264
-0.09343182254999419
-0.1313191811860928
-0.15221214358017035
-0.14906566129740573
-0.15144466102347015
-0.16297129378350542
-0.19001418233166018
-0.21422870072860734
-0.24169159060289094
-0.2626243650496284
-0.29289861129821976
-0.3291815494540722
-0.36145082220541924
-0.3705562287854894
-0.3743010561808469
-0.3755675430308674
-0.38428993138484324
-0.4031133557343246
-0.41701930311248525
-0.4156024126944615
-0.40619208685592273
-0.39523729290030907
-0.38922097262661615
-0.3778749076241
-0.3619471265814576
-0.3406881968600837
-0.31978271057486196
-0.3058535611299032
-0.29455766847720877
-0.27210841468175295
-0.2320557812530323
-0.18321682281580698
-0.1469255847238967
-0.11522289958387959
-0.09937274649607768
-0.08133872749518624
-0.06840380159120867
-0.04556255383841901
-0.036244477097842794
-0.016867234700057434
0.012369322464912708
0.0415225102670762
0.06494582531301574
0.07183050035173384
0.06695724866807257
0.07313820319125482
0.07110126163037629
0.0821876078202482
0.09480840585577506
0.1016731927758493
0.09002373911768577
0.07458960438459496
0.0591366381445924
0.05568993412848372
0.0485231229006006
0.05061010216272405
0.05815413369989952
0.058214180691906564
0.05036840851939113
0.037556786224359234
0.01326181400348247
-0.017133098567335223
-0.038177113196243735
-0.04846179742054637
-0.04689132238513959
-0.04580631299467574
-0.049014423226601746
-0.06521891871867896
-0.08818488951776068
-0.10345388257019243
-0.11031613034590133
-0.11998025497677262
-0.1442828337260846
-0.1505252568547797
-0.15210526402238575
-0.14168714349061143
-0.12080136240754177
-0.11876348408261117
-0.13408297549333117
-0.14819409133397293
-0.1587166713093192
-0.14283583015535878
-0.11558543179656544
-0.09292246726620504
-0.08043459802036422
-0.05960643383100296
-0.029624431628300574
-0.017445494231055705
-0.01645886263451543
-0.017000402272215977
-0.0051306548246115346
0.017531139257494752
0.03930092078392014
0.05185762501963381
0.055736747481605335
0.06155154287212194
0.06985305420625816
0.08364178960938985
0.100128548363055
0.1128704328199728
0.11756859813202629
0.12213806590446988
0.12992358582953276
0.14152997734695172
0.14566672454367893
0.14050821601183308
0.13857544697078458
0.14201744570193553
0.16030953290845154
0.18248317258838134
0.2128285379137004
0.22267890360460327
0.22059607565222497
0.21422510636763603
0.21731235714082778
0.24146580287117422
0.26197708615549425
0.27183410366685157
0.2695146074115863
0.2666151398613741
0.2875460002277172
0.297209235073662
0.2922409711647521
0.28789009888569533
0.29818358525763505
0.3234156329806913
0.35197928570788994
0.3377855050156089
0.3244628667740047
0.3141407278976743
0.3156647928040741
0.32232135094970576
0.32740095818906856
0.3266402999507674
0.31486599198604714
0.31254369123710646
0.3129862418840479
0.32141400977779805
0.32321863194836764
0.31661479434103446
0.3074523860413004
0.29487380068484087
0.29053838752949873
0.2899370948313855
0.2781897435115779
0.2666630536635791
0.26184367337841025
0.26320104142701184
0.2628811120948892
0.26035271687534056
0.25874445158246395
0.2501958804410934
0.2576628093615714
0.2625937995649067
0.27694605419818824
0.2656743582009605
0.24438030626074836
0.24543889719982057
0.25360953224697513
0.2740853557497661
0.2946532149612818
0.29545830160463643
0.2883692138777272
0.29348082889150434
0.3064626504314801
0.32999035198394827
0.33499136591911954
0.33724006609313545
0.3375478836371782
0.35624715625824016
0.37643314781273457
0.3937060600580927
0.397252811425635
0.40280563949430565
0.40503929959184126
0.410529814293642
0.42188811481908606
0.4304380938074311
0.43239174371883926
0.4319024955922608
0.4349637748774215
0.43873010602281143
0.45440538570713546
0.45536751119231816
0.4485763366425205
0.43765065684670396
0.41890196479732905
0.41307138352175404
0.40918111298073306
0.40115342048331376
0.3795712927395137
0.3530390944552214
0.3393324332142724
0.3309145937386555
0.3117191539572749
0.2870541507962473
0.2610190226767864
0.2303998643705977
0.20785961581123114
0.17768838982276183
0.1409647423194749
0.10243184855144409
0.08209136011101568
0.0715637969868037
0.058804152375657164
0.0354235789727727
-0.0011765279379655927
-0.035600164594356956
-0.06772064554411085
-0.07972527883303351
-0.08524714424327617
-0.09701971828019801
-0.10154990313084485
-0.10153571861596608
-0.10762766883516782
-0.1210351483013368
-0.14024001266078387
-0.16160675424320556
-0.170532556008042
-0.15914577413377326
-0.14461450031687914
-0.13405239983502143
-0.13702885978702573
-0.14084977686272002
-0.1487005531165398
-0.14790796054437155
-0.13496111975852235
-0.12466421679804701
-0.1260270284991375
-0.12303792997235886
-0.11555285877646876
-0.10708696017823986
-0.09321660162896334
-0.08812611434701106
-0.0937850985261738
-0.09933642048625094
-0.09848863797269775
-0.06754332829422251
-0.05846685748452294
-0.053634618236600505
-0.06012385397099117
-0.06973756088452808
-0.07578785206977276
-0.07675779603675041
-0.08820272817101243
-0.10643695554019014
-0.11097563550740448
-0.11214011636366404
-0.10894726212438717
-0.11535415071735879
-0.13187979184916232
-0.15323551799383164
-0.17351422334332478
-0.18588685438190686
-0.20060838459727443
-0.21236772997045977
-0.22561752658380738
-0.2414540832478097
-0.24815917159066747
-0.25721016003052094
-0.271545164329785
-0.29441398447073597
-0.30832350634837286
-0.310131870174182
-0.30281015930586247
-0.2868987578532847
-0.2824792421236354
-0.29560748328362757
-0.3183138491999422
-0.33226510566885725
-0.330125250703696
-0.3250150451429923
-0.3245731486975708
-0.3230213763869964
-0.3100134616997726
-0.30298080088607493
-0.2864051635064055
-0.2890223563485471
-0.3053956777967109
-0.3123932094247441
-0.30275389207669473
-0.2869172634100093
-0.2686097071556762
-0.26681463781265347
-0.2687772352461776
-0.26540169642867406
-0.2610153871994834
-0.23766469290077724
-0.24055838670960739
-0.24105156725924887
-0.22941307717412832
-0.19834680605520574
-0.1658784138389773
-0.15643566923319005
-0.17460515727728462
-0.19109540677435916
-0.19919144462535407
-0.18668092976201542
-0.16484477283436497
-0.13916282066348218
-0.1300653782188537
-0.13173787306517337
-0.13073634778619606
-0.13040094355265305
-0.11851013748541465
-0.11458096236158814
-0.11555183848317736
-0.11012569213121064
-0.08945109737562325
-0.07336632643678109
-0.06798291987971822
-0.08033351342296426
-0.09060267951401389
-0.09606955362054986
-0.09371372166840967
-0.07228082811109295
-0.04829066549817382
-0.04040337477343626
-0.05110928161385174
-0.047503136450759965
-0.04153947595636639
-0.034187797522023375
-0.04564197434050167
-0.05733919504097264
-0.06749732951125609
-0.06273406379750875
-0.047971062366025656
-0.04277087784745
-0.05234587555455861
-0.06359012718722416
-0.06399819650015376
-0.06210983765453303
-0.05912969553103221
-0.06204854415954753
-0.07906559065342407
-0.09090355733586156
-0.10451639948702882
-0.11158820077532496
-0.12088031420401028
-0.13656590017167838
-0.14755033221075878
-0.16012412167745574
-0.16439693158905333
-0.1638992994312252
-0.17161723289420006
-0.19015877286797322
-0.2038218013333688
-0.20941689779423361
-0.21535391299063752
-0.21417990154557248
-0.21401238588730506
-0.23121762937392773
-0.24921640057535135
-0.26212332996976717
-0.24209684896725278
-0.2348549751414682
-0.23273134256239264
-0.23174078214058758
-0.21693273111500486
-0.19809531289248003
-0.18015550738954494
-0.18118354558105404
-0.18234695621346259
-0.17337849460401183
-0.15440628921435817
-0.12313613917033171
-0.09132860114352585
-0.07838900446539682
-0.07047443956053272
-0.04551444532358126
-0.020202790382069527
-0.0002542437590773261
0.010138325793087764
0.014715146561854454
0.03888459826344782
0.07083090906393863
0.10301856104891112
0.12151478369091409
0.12308126740517703
0.12036462449226519
0.12053801250850771
0.12652418226664608
0.1351667116378653
0.1372319046715106
0.12931151049811432
0.12328384781165717
0.12770011022094946
0.13283217774247683
0.12318417866041033
0.10434603539232425
0.08041114559582954
0.0454308893829247
0.018201057696491052
0.004420496295840659
-0.015822568388917716
-0.04990845307989032
-0.08383933646265654
-0.10940139618778486
-0.12203209419889302
-0.12723205544949678
-0.14789256560038191
-0.18188255166217338
-0.21853094294574504
-0.23710475754935859
-0.24984007924984225
-0.26502175317003834
-0.289428197003681
-0.3170439330113048
-0.3284523658490657
-0.3204388197184679
-0.3029414197894556
-0.30210473994492704
-0.3071841249986467
-0.31693081008336654
-0.3246399948281887
-0.32394913204127307
-0.31280479236583875
-0.30353218838919266
-0.2968956746221515
-0.28087650783056045
-0.2532524131285104
-0.2203744626344663
-0.1965538682769611
-0.18330803689287237
-0.17362918664783153
-0.16479708300852317
-0.14159129855067973
-0.10436139491765264
-0.07115862182336598
-0.04172290400733028
-0.020059993029648174
0.005093018570491097
0.0184654861803636
0.0377630115565038
0.05843792862035879
0.0729178601294399
0.0974628782766505
0.11510407669194528
0.12965893543633447
0.1251475201069295
0.12133270751309176
0.10689189048871685
0.10380574120153441
0.10541138295404179
0.09623714742260737
0.08160183220171334
0.053130437631961874
0.026896806415120048
0.009853855619507816
-0.01725815008686075
-0.04803821636430218
-0.08857296420102519
-0.11899084752299724
-0.14290189877646348
-0.16787216896262067
-0.19413756425827894
-0.21888079047558903
-0.24996820038875764
-0.27910070796449543
-0.3001278682238683
-0.3285824313238002
-0.3617090378223049
-0.38975904647308074
-0.4069798824407662
-0.410092571157529
-0.41782470129966515
-0.41567943170241717
-0.4218514040762986
-0.439623682768529
-0.4485191232916862
-0.4409196149691863
-0.39490693096165946
-0.3590957098159517
-0.32812809286025607
-0.30644980822179424
-0.27016326960806375
-0.21676547080278566
-0.15110760545317323
-0.09149467173527856
-0.01414299087488773
0.08518221589833452
0.1997156307677338
0.32848006252274436
0.4588971846929106
0.5655716577797653
0.6609519606720531
0.7672606065901494
0.8902551718843639
1.0183171797334523
1.137714067768621
1.2460299145345828
1.357356575729459
1.4656778990305088
1.5579941255624112
1.6140189138210113
1.6550061763452413
1.679973416385324
1.6943871600610478
1.6906330287914273
1.6532030129502193
1.5861586971655663
1.4993977633420847
1.386680765381911
1.2738435921254483
1.1663076445466445
1.0393116292899276
0.8900899130635335
0.7201695945005099
0.5332303487455189
0.35646118532997845
0.18501747170854596
0.016194087671190655
-0.15729249342223306
-0.3189290062441636
-0.4512964955105018
-0.54797560275143
-0.6288083707868382
-0.6932128843046979
-0.7571106634954412
-0.8010529756096652
-0.8190486211766496
-0.8225331997970818
-0.8251130306818504
-0.8233415658910053
-0.8040439983286276
-0.7568290564793674
-0.7070458430698284
-0.6620755617512858
-0.6482544515467474
-0.63885516732718
-0.6273225412657311
-0.5799718719433316
-0.5293643010772301
-0.47024518808054594
-0.41599486928187585
-0.38123115228659754
-0.3509847112688886
-0.33379256684573655
-0.3058503801830792
-0.2723450666646607
-0.230831986839503
-0.19167660167599432
-0.15333299517233193
-0.11332595874917403
-0.08350549565666211
-0.05037329904795426
-0.026346362241209342
0.0005964106295983622
0.018701470481583347
0.04126747895524444
0.055685370044297605
0.06188904167910657
0.05770827845450022
0.06236589386794652
0.06338000586067463
0.05043569122791871
0.035829329944520205
0.012050200590254348
-0.0009220699479856004
0.00043763361196403136
0.007164442027010864
-0.012879764445478845
-0.04085614243437218
-0.06523704515957028
-0.08089381768917217
-0.09581359995431957
-0.10485919035130331
-0.11998297132124267
-0.15070016208479367
-0.1723556854883986
-0.17739364029015675
-0.18329427743754084
-0.19290624418994237
-0.20635013917509593
-0.2198000325007933
-0.22945235556651003
-0.2254242824542556
-0.23356144680533225
-0.25227124809102514
-0.27266370635655124
-0.28801146012899953
-0.28642576789056656
-0.2719117804015584
-0.254602608336382
-0.23641571762981925
-0.2351588324881761
-0.2247173511422872
-0.2104261401640619
-0.18756592723217738
-0.18316741969923145
-0.18246587539270925
-0.1780287436113471
-0.16426010592315876
-0.14319590000714152
-0.10497110522735317
-0.07938858795242675
-0.06115296231695578
-0.053810696612148205
-0.03801138889614695
-0.02277196238126976
-0.005499071219430239
-0.0006720899294229335
0.001659799345955984
0.017569456798628494
0.03690613277150515
0.0440468788771127
0.030103272001640275
0.02221665131843965
0.021916238025398
0.0377705381587671
0.04876780323064885
0.04459584013771814
0.0320491396712801
0.01915931538367738
0.008785219432812217
0.00562980306206011
0.00220098957699643
-0.0059324815099723194
-0.012819383194949721
-0.01524991631282462
-0.019776509049148197
-0.012200283885820321
-0.017078854054690482
-0.03242478357704605
-0.0471015501080969
-0.06432253929478665
-0.0772402308686393
-0.07444063030981142
-0.07412229902184791
-0.08015496269505704
-0.08604759036782267
-0.08318846096648973
-0.08373255375199441
-0.08642432723429241
-0.10223107655294844
-0.1177240092422354
-0.11369254963361998
-0.10328849266416004
-0.08960847058662477
-0.08552829463327404
-0.09203575389413547
-0.09121080533303826
-0.0837585751330447
-0.06429018709214392
-0.04237707265359241
-0.01783163794728433
0.003426214412586648
0.021577046099221585
0.032528215934305216
0.04897137930960982
0.05766210014016574
0.06275371855869717
0.06932033473246994
0.09495415213003927
0.12277253207172471
0.14292049471905055
0.14890982021698246
0.1415869281115871
0.13462638428421955
0.13561167177120986
0.14420459558120235
0.15367124866600934
0.16919145530320823
0.18253057856373686
0.18821254397017217
0.19419988485753018
0.19839604608269576
0.19596843121076968
0.18728164707941372
0.18308423058943943
0.18894460009890837
0.20830151990883675
0.22262772057700217
0.22926818051641934
0.22709650915357787
0.22231169391784408
0.22294404000649617
0.22268063273241545
0.2237509536671581
0.22685557569960807
0.22536712292314587
0.22058715064506554
0.21899883998451175
0.21060004462679285
0.19606158591938794
0.17787711300351922
0.18385973539691788
0.207025711688413
0.23153257439913316
0.24366467221832022
0.23488474253902894
0.23418068423909824
0.23391259190276287
0.23924854140760488
0.24405759736562474
0.24250629646137498
0.2498099254647063
0.2708019961825144
0.2953576107500915
0.32402743554206903
0.3460671982015518
0.3522551289943883
0.3409959623698889
0.33907248885301466
0.33786857105011586
0.3614200371613959
0.3788354014313266
0.39370770241883046
0.41115828070862454
0.4250208802404382
0.4233351235032549
0.4090977830996442
0.3944653143038413
0.38732738821832396
0.39344336628138243
0.408813670051262
0.4279192461905748
0.4367030965063825
0.42203021792785494
0.406475511470548
0.39492120051829444
0.4062930260868813
0.4110028151618855
0.4087632794265237
0.4118040392557494
0.4134400532451563
0.4140095478761772
0.4059208492135255
0.3898252117681807
0.37431113467809
0.3646130005589295
0.3626105159457611
0.36560751638990846
0.35992309949383855
0.34286237913599354
0.32088499305080687
0.30777362743562364
0.2944229482232804
0.2802703047533013
0.2674972916075203
0.24790757370916003
0.22764423708748435
0.20552329308379977
0.19164797057834335
0.18024948003364147
0.16158793994999157
0.1365997649046713
0.12239038631435237
0.12019269014794397
0.11994435973892946
0.11615607856189751
0.10180846136055573
0.06896248427552558
0.05209195600066927
0.03440046242244336
0.02411088062146278
0.023949918556435912
0.03603091163349964
0.04079828417814087
0.04066534734547933
0.037127852542556294
0.024050885689685494
0.0023167700227111065
-0.016512685020736464
-0.024538207285888222
-0.01996396024684234
-0.012895177650971978
-0.013741851332713736
-0.02558947638902752
-0.03199245639951538
-0.03145657368226333
-0.031640737657551626
-0.049661901232829465
-0.07669661673537946
-0.09476449385386276
-0.10114061602367098
-0.0982852285790158
-0.10299835859352154
-0.11773497836014139
-0.13640295821370438
-0.15016104946429015
-0.1580994109778755
-0.16693450600402174
-0.16842755287460712
-0.16166110198029945
-0.1658557631023207
-0.18436180758026005
-0.19886134609446124
-0.20202032249476526
-0.2142723470088532
-0.2224823060173664
-0.21229322413536503
-0.20505048600789602
-0.20317891067735294
-0.20086345373067296
-0.21334448954858115
-0.23480631000111526
-0.25424547125603564
-0.2762216413598807
-0.2738635435485742
-0.26149648740928566
-0.2525307908471925
-0.2545793555813982
-0.25572566506539085
-0.2611426929093764
-0.2781402319372911
-0.29083686053316715
-0.2986097361531967
-0.29137684048515006
-0.27553529711596614
-0.2593137740992981
-0.2561291476656682
-0.2592583847683275
-0.26319946473635153
-0.26092488276928266
-0.2579187971832002
-0.2468489067780534
-0.24021819412059112
-0.23618726094546655
-0.23413729209055206
-0.2374164336569869
-0.2313684587195823
-0.23673526983510787
-0.24862548909843124
-0.25757034550348135
-0.2623403423371801
-0.25590811849358913
-0.23643422010218357
-0.22710245255560693
-0.22912583706804965
-0.2318169753277678
-0.2333389322531935
-0.22453211771334738
-0.22004053893948697
-0.2165055004175894
-0.2108752670638132
-0.19704856834901852
-0.17380891137747623
-0.15611561180980593
-0.14458827835629065
-0.13984937787693874
-0.14008313037698758
-0.13737374376926437
-0.12228285538335822
-0.11009309055266536
-0.11212328802893098
-0.11924996293177226
-0.12052179093077225
-0.11078838079951236
-0.09771867708684014
-0.08959440566036295
-0.09378396354936637
-0.10728216764226785
-0.11579435067783751
-0.11479172237747316
-0.10310254041150292
-0.09786424105734788
-0.09973491804797155
-0.09533394576008747
-0.08989313967749117
-0.08467445872535902
-0.0714765043326538
-0.0726094411606719
-0.08169385743597639
-0.08715723996063957
-0.08810155592083772
-0.08392736525244765
-0.08959119018049731
-0.09166246236793711
-0.09867410641119653
-0.08710945982694822
-0.08654094782418661
-0.09571179227311258
-0.11518785863824875
-0.13789792437547876
-0.14852361707585227
-0.14608141047937545
-0.14789014825717584
-0.1611920222078804
-0.18071201867152928
-0.18896388466425323
-0.19134410879745936
-0.18897393344686117
-0.19090672156372032
-0.19795577846554327
-0.21673279009019553
-0.22516631774045906
-0.22499011167399635
-0.2179421492632508
-0.21553095723070176
-0.2280512269966282
-0.2377312200741231
-0.24694877829956405
-0.2507682863085728
-0.24853765970277314
-0.2457201973945132
-0.2450458109724673
-0.2410188456919629
-0.23029392327224862
-0.21655879395822963
-0.20321073058382375
-0.19396682908281507
-0.19164318076728143
-0.18350694105817872
-0.16721411029504513
-0.1276168243083632
-0.10145572185344674
-0.09527154265012344
-0.09608433265444849
-0.0805467071018849
-0.050035329497705935
-0.016611962630051644
0.0009454015727098219
0.0085756430084319
0.01679611957539267
0.022395257151565828
0.036814200428485336
0.03701853638385872
0.034465801044119115
0.025366790014272736
0.03127329821136228
0.04384639779671249
0.059645937241748166
0.05907611717131037
0.045751997135764715
0.028496250754791435
0.022255440061476953
0.025518948721435588
0.01787803454700012
0.002747878220954817
-0.01155238301399379
-0.021260022667556087
-0.022286978637510325
-0.027309690984009195
-0.04471455679803686
-0.0715808649404299
-0.09703931039794896
-0.10898745591192585
-0.11697872046104191
-0.1287276536664827
-0.15224855821484634
-0.1854827866600051
-0.21569115373610573
-0.2429538175273693
-0.2557605063806495
-0.2658012180781958
-0.2869131078120262
-0.30243131690597924
-0.3109650680979461
-0.32304330196072173
-0.3187000077816741
-0.3286479820603831
-0.3470055877501348
-0.3529643430703923
-0.349545013147756
-0.3321672385449953
-0.31947089078470914
-0.3170025092204034
-0.31202741618983787
-0.29183857869261565
-0.26908373183460904
-0.24270399578383053
-0.23424597444746695
-0.2326263868495995
-0.22189914403171443
-0.20291900572760846
-0.16251795680151707
-0.11347782573800762
-0.08659304605659943
-0.0919123987500937
-0.09767976329232243
-0.0812918926223831
-0.03570322156886332
0.013793959349839175
0.044055666104507764
0.062469130150147996
0.07247318025673391
0.0848520031537242
0.0954613829099349
0.09560648488949004
0.09248952079647618
0.09761557686679358
0.10146600810211534
0.11286476550936159
0.12266534718770677
0.11900889482130196
0.09220652563125369
0.06616991368695473
0.03310663301406176
0.0023438660981442844
-0.032020087816148665
-0.05541463596172709
-0.08192975751373022
-0.09664418817911645
-0.1148290856272121
-0.144417129009734
-0.1896680458968923
-0.2292011052677538
-0.25566947643254684
-0.2711868721352371
-0.28672125652529307
-0.3098925524279993
-0.34772296984411405
-0.3758199178886001
-0.3884253849398697
-0.3898749199660634
-0.4025348311709548
-0.4256087723605031
-0.4455155411143085
-0.4471819677098242
-0.43510042381920394
-0.42539596873624
-0.42568675866940586
-0.4201316646133012
-0.39475816521272555
-0.35882272646569585
-0.3142940002555504
-0.2708039859036558
-0.2331346117809667
-0.18687296104746556
-0.12861905758548325
-0.06720337096136852
0.026972708223953663
0.1279521719496901
0.22929498779504917
0.33767390742148534
0.46402914254854344
0.5982446261149096
0.7183070494336218
0.825708377501562
0.9314128134713892
1.0500628614530043
1.1691623060525698
1.3006513783270874
1.421099267953062
1.5211425628035473
1.5978589275983486
1.6758251487983853
1.7320502404701492
1.7637216412514425
1.7677605182478282
1.7511974576178362
1.7034030197725603
1.6214151502764995
1.5193979369545334
1.3962933688872277
1.2626731358610388
1.118459703629407
0.9797773003396484
0.8246307447138806
0.6554591509191815
0.4713628460121926
0.2809159680700872
0.10185713660208519
-0.055698480276320066
-0.20360590357521535
-0.34548414313223264
-0.4739740926366181
-0.5783716644843948
-0.6550071822102612
-0.7026718641922055
-0.7308606513208593
-0.7539775038032961
-0.7788268977090093
-0.8012596567353468
-0.795189443958013
-0.7641660331510242
-0.7218465048052318
-0.6810103699391993
-0.6492876703046181
-0.6190886093696922
-0.5883535768217245
-0.5471251025866108
-0.5120290315559269
-0.4670720207137332
-0.4316891671022642
-0.39604790242951793
-0.36193593043747097
-0.3274999558867679
-0.30249988255478266
-0.2799253394711747
-0.24575670366082442
-0.20489935633748466
-0.1631752659996848
-0.1288446403323258
-0.10100588429261988
-0.07905151780866398
-0.04099822961137891
-0.005735362744100825
0.015803546181232947
0.02979849785561642
0.032997037345861374
0.03743429446167753
0.054871883293645014
0.08215185496924003
0.1051648022655892
0.11136191930998895
0.10836975438612739
0.09957735492129166
0.09481604361826308
0.08380959255293684
0.07492761793735839
0.06436275617961407
0.05199652610948046
0.052687508122813594
0.054767046581965434
0.04078676374137649
0.010401968905020112
-0.0300072215002207
-0.055743560216980466
-0.0726215253468191
-0.08218312984043909
-0.09818009844917912
-0.12399584609709631
-0.1587520999173618
-0.1915142189555055
-0.22662232895708764
-0.24158247252459408
-0.25786561915939665
-0.27682689406484073
-0.28306419410067685
-0.27249416788091146
-0.26242354206586727
-0.2622547820440054
-0.2753173844633117
-0.2854409137022106
-0.28106197535528327
-0.2643781061992928
-0.2385299813395901
-0.22285773214328575
-0.20621003842172042
-0.19393617290993756
-0.1828606945232625
-0.1728767732188183
-0.16663819663593288
-0.15948619868708447
-0.14951655300949612
-0.12353918626378373
-0.09399901461793958
-0.06296424087937133
-0.04714614571897234
-0.04158239409956839
-0.04007971501424439
-0.040398902101822724
-0.02655323974977631
-0.0161056458184795
-0.006153907567102806
0.005920287659839364
0.024588798544093057
0.04122535138127616
0.05394144434341895
0.05995776995414598
0.04736498551493848
0.0402866527113315
0.05005344920421957
0.05963919966751395
0.06180427323334251
0.04841356425051132
0.033321513205232176
0.0227698776393284
0.030948573414585116
0.030863042822320153
0.028484991937357658
0.011788607837936676
-0.003783612845211394
-0.01682483832457487
-0.021351893712455203
-0.02420173955363135
-0.03740497164255136
-0.05743743895941016
-0.07620805158523197
-0.07190603460103773
-0.06148972120316357
-0.06162797142953647
-0.0743590750720253
-0.08861756711028329
-0.09640831674458998
-0.10684424009014193
-0.10342450323424573
-0.10659166702769253
-0.10049362587198962
-0.07021217454501419
-0.0460099399777478
-0.05602993273313941
-0.06861954085433795
-0.07166989434456753
-0.06284917208466351
-0.04838016747187707
-0.045784783452916145
-0.0381084553494184
-0.02915153787770592
-0.006543206985597673
0.02408301483972773
0.056790413937966196
0.07862760378479058
0.0745129232449513
0.06416021854039573
0.05874815194025901
0.07282279317781418
0.09958117107948457
0.1313178875015663
0.15149190636977358
0.1615810396869382
0.16033169229692829
0.16847679520342485
0.17167139399977888
0.18121867626264132
0.18982172113744017
0.196910874416587
0.1997933290563083
0.19914491452166766
0.19443154045137667
0.17749955789713734
0.1554610898464685
0.14794606618263645
0.14987142984299076
0.1576829862077119
0.168743402858678
0.18041505751742462
0.17968304430445467
0.1697022500624067
0.1670494208234546
0.1599152109059109
0.15997959720680804
0.16060418267359913
0.16307469708562125
0.16897121810601368
0.18596548221403883
0.18723449067009976
0.18897012247397474
0.1823289736574466
0.19324323386083675
0.20704712821668886
0.22371080109407254
0.23190256663753797
0.23462287766654913
0.2199101520239255
0.22278871857789045
0.23372282658327465
0.24072958343200526
0.2373143651465926
0.24596929528315853
0.2608051096656074
0.28569722154853244
0.30590751596554633
0.3146344002916002
0.30691098694725116
0.30707049177249895
0.31595521087930895
0.33563530911084527
0.35506737181377473
0.3708458960529008
0.3743873505510452
0.37085042735875806
0.3708971481586438
0.3705526794309365
0.3826365438014592
0.3845806088263868
0.3715261364730963
0.3541872353312801
0.3423717827124203
0.34467554255476235
0.3571905044652513
0.36106267292905575
0.35239642304982527
0.3306574076584452
0.313013764785231
0.3126687410625227
0.3187190798701008
0.3132425802293953
0.3048641584530366
0.3009853559694713
0.30106974291490823
0.2969470048621609
0.2715913276784501
0.2543539540964742
0.2532175166692588
0.26425525199780836
0.2688840582318144
0.2567508898510883
0.2272582922872592
0.2100098233961217
0.20316834343009554
0.19054499280596204
0.19134012313994087
0.1820235115261083
0.17201390507201794
0.16065254574992194
0.1491050859831028
0.13517479342591562
0.12276337518415255
0.1136327479655061
0.11442471124237101
0.11804744823746409
0.11832416924643124
0.11243546444497961
0.09786880720514521
0.07028349224517769
0.05219639463522558
0.044462902111620316
0.05252127113010313
0.057403446313693186
0.04991330935974434
0.0217776583244204
0.012945985888610673
0.0023445136771343585
-0.0021022768914292934
-0.008024547227225346
-0.023349328802929288
-0.03982224649100441
-0.04094193478933343
-0.04315669835618597
-0.05619463275074503
-0.07451987226994207
-0.09381181102333441
-0.11249169784845374
-0.12562036379727648
-0.12917134054364804
-0.1313226265218637
-0.13811527023512457
-0.15681107182587983
-0.16324172846645524
-0.16894434324424945
-0.18179704591319978
-0.20235794667431964
-0.21776276590364613
-0.23132577282864264
-0.2271421614706466
-0.22043949007715138
-0.23163972697609134
-0.24974068575693356
-0.2594751919282209
-0.2559586899435226
-0.25048717614208776
-0.24520898669310098
-0.23770187497090126
-0.2444697257005016
-0.24662409402682972
-0.2390139282450532
-0.22717333617618338
-0.23250852282561632
-0.2376738653983941
-0.2271569736363047
-0.21504711573301172
-0.19895559259924894
-0.18198615223626344
-0.18127849790361006
-0.18284415967382217
-0.17665873464573129
-0.17069833329284403
-0.16835722947098758
-0.16600595660687523
-0.1664176602680792
-0.15984788556810509
-0.13746112412543193
-0.12306689751554142
-0.12826150618890597
-0.14022170843502454
-0.15283083084680402
-0.15294689143879817
-0.14481547928191674
-0.13359168297836188
-0.1296128075085795
-0.13802364180039792
-0.141383196870882
-0.14025137835054502
-0.13732164830301807
-0.13711675249146274
-0.1459896417913284
-0.1657161161582936
-0.1696935189277814
-0.16488858530784878
-0.1478957362786458
-0.13972588258521296
-0.13881306057137027
-0.1536670217513751
-0.1592364566856391
-0.16587512097005455
-0.16166764258767716
-0.1508797253375012
-0.15273780635555465
-0.15412986150803562
-0.1428675741724539
-0.12569051807038323
-0.1056843097113971
-0.09509686367708066
-0.10191100854297146
-0.10482101208576285
-0.09534356897834391
-0.0817840408720352
-0.0742828600047063
-0.0781010950135962
-0.07225840539022502
-0.06995306014347451
-0.05386748420355218
-0.042386202412850196
-0.04595720162717934
-0.054884490993224594
-0.05580546294284549
-0.05213534205537486
-0.04728252211824165
-0.04861466675998705
-0.058608301385655565
-0.06721913938847834
-0.061951641571629655
-0.061120648622680164
-0.07234964897240333
-0.08951899447746699
-0.09520709674688377
-0.09181655159532753
-0.08875779003833052
-0.08383489969687245
-0.08979485885729668
-0.10411768814852713
-0.1279370458700254
-0.13949253950295967
-0.14600754763280227
-0.14981798947958958
-0.15600256147221864
-0.14797155019475572
-0.16741945301056596
-0.15747568754261462
-0.1616685674956252
-0.16066773695696265
-0.17390299832824682
-0.18114038015781395
-0.1792427667685665
-0.17027008979068295
-0.15873413736624029
-0.15526154861705438
-0.17049164734895741
-0.1674727554945702
-0.1492429660038083
-0.12892523839581854
-0.10592545553922246
-0.10834939403229088
-0.12525776707103173
-0.13657136047951168
-0.12832842853099766
-0.1009232810359892
-0.08497361032619188
-0.07418489050055393
-0.06807118163317541
-0.06463000175373454
-0.05850988374388432
-0.046196419774859006
-0.036996183401529416
-0.029537805146206873
-0.020924797732636457
-0.007649095106164054
0.010138698906010612
0.028020942350107245
0.041892228268666294
0.036365273464769705
0.029630801543147563
0.031652690267968714
0.0508829804529092
0.06832492130765629
0.07689947925720123
0.07900513029524871
0.08346713580647175
0.08112560145837638
0.0668071965111075
0.04268205076399287
0.012160538096147243
-0.006985283505697282
-0.011612163510216836
-0.007408475368699025
-0.0018766387641421904
-0.010437524492355786
-0.03995344236718233
-0.055772840077591104
-0.08029791576092267
-0.09930338149672271
-0.1260216129699797
-0.14316504869543112
-0.15297430803819995
-0.15494412111608957
-0.1616939321870884
-0.19256203006010625
-0.22508796042439103
-0.24200906744256015
-0.24529997233687148
-0.23847558870440858
-0.2400200208979053
-0.25043140153990034
-0.2644297904323731
-0.27523076734355933
-0.27668268468580115
-0.27303259183905476
-0.261227743912059
-0.25563367254710806
-0.25141537799453884
-0.24711871477841127
-0.2407028094392125
-0.22099482851149477
-0.20735929127646344
-0.19995606011916792
-0.18706245700447888
-0.16216016394683222
-0.13766517002069495
-0.10922205761067143
-0.09079457332411575
-0.08323179182834002
-0.07243440728949758
-0.06230885639196329
-0.032347573364109705
-0.012999891425587587
-0.0011406140348267967
0.016130568573644442
0.03952051572514983
0.06120714927675613
0.08101525228079948
0.0801752336157114
0.06160593358682286
0.05205253872093367
0.06485895257685816
0.08867823245459044
0.09418698782326748
0.07680799816126996
0.056710493303299046
0.049820161639486285
0.03821849911917524
0.017136261155177197
-0.015117811013946655
-0.04403664745494139
-0.052343492448374745
-0.048983857468327695
-0.052344174025129725
-0.07347069435912529
-0.11088458325287281
-0.149669397629691
-0.18191972051340258
-0.20308249678819992
-0.22599756305503874
-0.25374200113676776
-0.2765819064386949
-0.2893696448072189
-0.2860542414314858
-0.2981342792981858
-0.31531997608094575
-0.346567356563505
-0.3697298322460237
-0.3861835795513569
-0.3823796932670264
-0.37531423986468454
-0.3771313243965361
-0.3881054147034571
-0.38809750782099506
-0.36829165957360493
-0.3385185555328143
-0.3025371943727452
-0.26932473405940566
-0.23720697896348264
-0.20911453866975901
-0.16389601659113187
-0.09781702745429124
-0.03889993768605228
0.021129086032505504
0.0993790642776736
0.2129479679582255
0.35024141595629105
0.47860518262105256
0.5775909716983988
0.6560488823437651
0.7454175938391467
0.8487666951438277
0.9691797636188897
1.0841244731237991
1.1970272675702813
1.3012676969694355
1.4018471861383377
1.482129212627879
1.5657881852782298
1.617024672755684
1.6348602048406018
1.6375751026824619
1.6398221307465968
1.6364531929238182
1.606485986033551
1.5304971567708519
1.4211368135098887
1.3029865609415714
1.1710561629316958
1.0368599613207516
0.8917953850694116
0.7251443013723022
0.550008198989513
0.3639395247074406
0.19989936355108953
0.0325704960259577
-0.13528690862965473
-0.29725168656442147
-0.43164952199440615
-0.46615847787672077
-0.6034153419938153
-0.6676776716873669
-0.7194136330790986
-0.759607814678985
-0.7840820311599999
-0.7892958366981715
-0.7912684621548187
-0.7733987739657282
-0.7557373975060915
-0.7177830041539637
-0.660124689975729
-0.6056628154884469
-0.5629899335769118
-0.536155183434867
-0.5084899126650243
-0.47007037234293375
-0.42473450054515455
-0.38000954606985654
-0.3516869040558839
-0.3351345216358783
-0.3178052550176616
-0.28472638598281247
-0.24260354031857334
-0.20181277783480364
-0.1733452875194474
-0.14072914693285743
-0.1027475398760436
-0.05634621660984817
-0.006700032433186436
0.014481133919725398
0.030737829102709526
0.04121811760593487
0.0624869632979023
0.08183974204985
0.10643477669141646
0.12057321663979204
0.13605147645267096
0.15157645081455975
0.16375188531366713
0.17196119321701772
0.16158370119490553
0.13237374428557347
0.10273194402623251
0.10115949790408012
0.09790129637102722
0.08489507065185671
0.05715445939122684
0.028939702431530767
0.008121550267085685
-0.001380584353029216
-0.007841151133883006
-0.02410294829503357
-0.05659496948583125
-0.08763683802706894
-0.10839932864042047
-0.12806258570684076
-0.14757602204114562
-0.16423895832351018
-0.19947303352864942
-0.22833379998478123
-0.2393241774921352
-0.248128898388556
-0.26191318664689167
-0.2805451220621418
-0.291104196576969
-0.29412584939117276
-0.28987003902759423
-0.28289886387971913
-0.2878744302140782
-0.296906541998981
-0.2871807682805321
-0.2572709303617804
-0.23354585350269683
-0.21798563334226817
-0.21533847825854105
-0.21541919543035518
-0.20134581408175453
-0.175780295773231
-0.14475225290549967
-0.12772607516716505
-0.11579127272233695
-0.10705755433743017
-0.1014640194679904
-0.07422740576858897
-0.04114273640945402
-0.021046139620984245
-0.007737709643327946
0.009880598896419865
0.030108100841728058
0.05217943756394405
0.06314452129146866
0.05587420717663955
0.051948162732722035
0.06351097837039811
0.08167661667078557
0.10216169925084319
0.10209331614095034
0.0915800131375187
0.08990864799583353
0.10235126295651935
0.12107909410817137
0.11417519621106552
0.08117109826648614
0.04877245628093351
0.0369842930451673
0.03957848869043134
0.04880895806355587
0.0447285329452496
0.0165473167622528
-0.009295495994784232
-0.01673873212528853
-0.0193266590587754
-0.030305991443518754
-0.04370841348811412
-0.053577575047893296
-0.06465149041459212
-0.08137855895645593
-0.08625284539863579
-0.08833524980566194
-0.0899922910990299
-0.09299988638797799
-0.095797290807989
-0.08372214011694215
-0.07417350196558618
-0.07175329389283744
-0.08108214235343386
-0.07719814998737358
-0.06139943710411027
-0.04354359976978283
-0.035637797147642834
-0.027729563888039745
-0.015674206652746686
0.006190975627251267
0.026434186453226403
0.03758709918652043
0.027297434697181946
0.019832450542829783
0.020542405346068524
0.03386681963194023
0.06211573032519008
0.0920445279847034
0.114690769732568
0.12201887329507372
0.12614624762390528
0.1251667133873745
0.14282173569526668
0.15129623828978733
0.1581887349474219
0.1686719500178859
0.18091533692159964
0.20378384242047054
0.2278474081134944
0.237281324704315
0.22970048088695383
0.22165105179947195
0.2129058170180255
0.22125064890405186
0.23518361677982272
0.23222279518538094
0.22803488617661502
0.2324908766551904
0.2279981621415917
0.22381682267520656
0.2209648979465807
0.21404774884770494
0.21109178504929788
0.21309756341169797
0.22136232259937894
0.22710355499251525
0.22732626117071555
0.22421189725167914
0.21718373901253077
0.2151128131004503
0.22746818250877135
0.24295598684552772
0.2511858368933413
0.2536568981625411
0.25368831142415604
0.2588612259622335
0.25813294428991174
0.24716603671594847
0.24450286224267198
0.2528119024855357
0.26499227728624364
0.27943303239280776
0.28902894602235424
0.30132237617170216
0.3095147932202549
0.3077260644623274
0.30594852344005197
0.31143367277268863
0.31557161651030463
0.3140325049432227
0.32629753124330485
0.3459191057195605
0.3606618590505879
0.35799593311144196
0.34523763985988565
0.3370381253770905
0.34043059657901353
0.3661208851492888
0.37538967804584067
0.3649256163191128
0.3448532330975122
0.33201860542937645
0.3249654473439031
0.327431077764188
0.3214913629394169
0.3115020439130474
0.30609310691915553
0.3035198495917893
0.30142650871837173
0.293488141445761
0.27825882574696476
0.25428784320014497
0.2396485089923085
0.2276892503052078
0.22975458584782524
0.23856537252317836
0.23554182419813519
0.22101347057518364
0.19926601976224673
0.1895267487147208
0.180495993659234
0.17306923393479878
0.16507949037163164
0.16625045239911368
0.18477015344524916
0.1970811575335824
0.19060344952244931
0.17166953933776122
0.15453993671111788
0.13485570778882291
0.12686895531913492
0.12957173946137318
0.1242562226879226
0.12181544664189518
0.11666601308174711
0.10841562560176501
0.10339020999443645
0.0944948069942136
0.07250556311040934
0.051398843587461676
0.04668601985867246
0.04520371857126152
0.0408178657594289
0.022523053974129698
-0.002365186112206705
-0.027740289568787702
-0.03527776440472907
-0.035326448560305396
-0.03883442287625112
-0.050330935589751276
-0.06609615824301414
-0.07446719100712901
-0.08757539167808692
-0.1025925234666641
-0.11668466739242224
-0.13494760698746522
-0.16583083690809602
-0.16712615895567623
-0.1787124828465932
-0.1943912622198186
-0.20522023401682055
-0.22636863161149404
-0.24188506218397673
-0.25169295044748774
-0.24290690795102726
-0.24537236029669449
-0.24805337851541184
-0.2512152984848709
-0.25574480846754805
-0.258573012982378
-0.25176020925438725
-0.2429414873991374
-0.236101721950137
-0.23249075879181216
-0.22604560058344403
-0.21773216995777492
-0.21005170102476506
-0.20490371475360464
-0.1953457203348667
-0.18908914580109162
-0.17584625470713805
-0.16150640192629923
-0.15257161542423778
-0.15340874231516075
-0.15861906608089654
-0.1505956032803167
-0.14224368927980413
-0.13456276911063833
-0.13648032071835373
-0.1428793403179487
-0.14527775442720264
-0.1269449448171327
-0.0909753891435331
-0.06822208495918858
-0.06511418017393747
-0.06945463730149136
-0.07300172080297877
-0.0708587227414428
-0.05872777038092639
-0.05121965668091862
-0.05011807071340737
-0.049262851984926685
-0.040959184880711555
-0.02940554879529312
-0.02642267887540809
-0.04077433472553681
-0.0677933153668395
-0.0909086717967349
-0.09751535268452367
-0.09667481728662265
-0.10355351965097691
-0.11104477043029426
-0.12486324237778144
-0.14249049205268874
-0.1525659224327304
-0.15716442346883785
-0.17393351292437229
-0.17872468754202162
-0.1800525065614884
-0.1736267415187552
-0.15852609021112365
-0.15123560202839106
-0.1630650516322599
-0.17176913223076506
-0.1667103304228215
-0.1519099248766682
-0.1274326455376814
-0.11379832046643991
-0.10590206100481253
-0.09986686375665456
-0.08877005668777328
-0.08095126830537418
-0.0868891245928641
-0.1066881978066672
-0.11848138815429181
-0.1141316507031044
-0.08946531718718025
-0.06654695544775249
-0.049124872797052334
-0.05406083641175591
-0.059146841284372156
-0.05772701272389814
-0.046490241640662094
-0.05018700356199482
-0.05266311425324269
-0.056975158829259555
-0.053043509424212446
-0.04847308827379934
-0.0554317187212759
-0.06928945246508818
-0.08631823007656383
-0.08873993778908573
-0.0798204413002987
-0.0646458376725867
-0.06965384337941691
-0.08679152492069117
-0.10922031652667206
-0.12490946861605629
-0.13250606291489686
-0.1340131523726818
-0.1375381289627606
-0.14539356192049818
-0.15226820771826166
-0.15224753470679375
-0.15437857711096714
-0.16558287486796394
-0.18608073201924172
-0.19932249656854803
-0.19884368344109074
-0.17911135942802847
-0.15352930305704868
-0.12544873495234882
-0.11319162479464516
-0.12319703251434601
-0.12499813731412733
-0.13147822805933454
-0.12105503073243355
-0.11457946266324132
-0.10057103743085347
-0.07153024364652842
-0.03553297853693755
-0.015923655369128462
-0.015915062313650235
-0.01736567127731113
-0.013429266062064906
0.0039587849903124
0.016924892311146172
0.03963948968740107
0.04874359012391482
0.040415531175320304
0.03464546939798479
0.03831356368067452
0.0424456337414111
0.04418639210236847
0.03917224772740846
0.042893829397862966
0.05224747315330135
0.06109927257389294
0.06821992923104979
0.061722217498996215
0.044084056468328414
0.02818135126564611
0.011654373360070129
0.0016247705422438418
-0.00697160591302647
-0.01887455777643957
-0.037280482446676935
-0.05316369734264549
-0.0657240266427508
-0.0805581235699203
-0.10844128739293106
-0.14305358687701655
-0.1722733886087451
-0.18306266840099328
-0.19168041418999768
-0.1936397076899476
-0.20185519760403534
-0.21460436317698933
-0.22926225054549565
-0.2517638724894159
-0.27280430740174344
-0.27333368199558866
-0.273384236834526
-0.27775401252625764
-0.2601400527780283
-0.25132989218082114
-0.24979125692862103
-0.26256353598887766
-0.27718339131641806
-0.26778762161889463
-0.23905516581774572
-0.21338953263714303
-0.2129132249162843
-0.2109461283262342
-0.19944331719954975
-0.16732669057680152
-0.1325240131178375
-0.10321127039729908
-0.08757481881384768
-0.08373816216411692
-0.0684679786623497
-0.041113511345573055
-0.006819643032017021
0.02256091384892425
0.046780286885480256
0.06987482954711596
0.09253922669174676
0.10694169487766214
0.11320514086330608
0.11269614122250322
0.11107868351942524
0.10855101028968019
0.11510502752184892
0.12001179573991327
0.1266102909413534
0.11172197346105435
0.09248029277372927
0.07201241482840087
0.053475766991457695
0.04585496055915488
0.022764142942709745
-0.009809898192944217
-0.04555135338254727
-0.07507140224233333
-0.08682639003851625
-0.10465511074127619
-0.1389568274160442
-0.17418316849908566
-0.1984418454172654
-0.21570650377834252
-0.2394120358042233
-0.2628579521713052
-0.2967462866813292
-0.33287138331178917
-0.3502263985318927
-0.34887893330674985
-0.3536358950356069
-0.36644170801386505
-0.3834695569793548
-0.39085131447407867
-0.3939744125971704
-0.39276553206114134
-0.3835225788462719
-0.37997116254995456
-0.37420470662871547
-0.3757443779432884
-0.3669855438297599
-0.34256204127343975
-0.3075138352580357
-0.27087694092138054
-0.23103374429172074
-0.1711331760857872
-0.1115749698847241
-0.048364873331375895
0.01576259938676363
0.08080751140320445
0.15805252818617116
0.266404764970861
0.39883229618203175
0.5263350120617294
0.6373136758733173
0.741235518098096
0.8515490228749905
0.9701243351004756
1.0854255324308637
1.1960106946104934
1.2876478019641435
1.3775648919848098
1.4665424093942798
1.5593603886912673
1.622993185968968
1.65221912300965
1.658330110760847
1.647160349437055
1.6108466773150267
1.5461371735588552
1.4467609941762065
1.3366888731908775
1.2329019468791744
1.1267748149510122
1.0002461965704137
0.8468718124914585
0.6760933713200424
0.5004185419042999
0.3308399975469046
0.16157383219659557
0.0060642966313211085
-0.14024921866009996
-0.2764389157155176
-0.39182016476365267
-0.4918935351346313
-0.5766821621774492
-0.6556877826122514
-0.7243967377363912
-0.7725220530110852
-0.7849214440701044
-0.7757771206452171
-0.7593025438537249
-0.729298361118698
-0.7052322042045843
-0.6767007453567208
-0.6382178555746555
-0.5953175722656671
-0.5477698654299463
-0.5121612704537613
-0.49107262533468293
-0.4657535336505467
-0.42358439061067626
-0.38370714030829123
-0.3488077061236339
-0.32983072056100937
-0.3029491430058759
-0.26479429822566436
-0.21780478480853602
-0.17602081540329378
-0.14829687452551327
-0.11968342577332312
-0.09292461627337134
-0.05549771712156577
-0.010735691961965547
0.027363768966644726
0.0613003235817435
0.09359533628056534
0.1341182177505751
0.16133372756611056
0.17906313384710357
0.18291850015837507
0.1773926883095064
0.17830143297438916
0.1874557225231518
0.20029075708060523
0.19243866909363683
0.19693253221618495
0.1653587282790419
0.12897843909275647
0.10504257401105059
0.09251742964667486
0.07635446366578016
0.04854345749930564
0.02092621577872228
-0.002575818921983739
-0.015284293501214572
-0.04011393384967829
-0.0749528063417816
-0.10639780147462907
-0.12226946594865694
-0.1280938132589239
-0.1400869282704595
-0.157083584124073
-0.1925816381206248
-0.22775050916675524
-0.2318791402562167
-0.23042820278763534
-0.23270971024206505
-0.2508083020807621
-0.27608534722657674
-0.28009527227650033
-0.27042982249209074
-0.26050764649756203
-0.2674379825011808
-0.2863868926540431
-0.2921021437605852
-0.287737121159148
-0.2679252742918619
-0.2428857081897034
-0.22987669962318097
-0.22939112447739307
-0.22484878648315398
-0.20700630949154064
-0.1879915557112108
-0.162240604750572
-0.1324331503251739
-0.10186059112909127
-0.07289728387144305
-0.044251223845586614
-0.009740603453376896
0.01302410133918708
0.02444918841790502
0.029533152438300514
0.043666791911693925
0.06669673110644765
0.08079093818843275
0.09102596590733149
0.10189089667506061
0.12369638641221005
0.1283273123541365
0.13468690237707034
0.10677406325401892
0.07452513179530917
0.06149085553892212
0.0665259131570513
0.08301250545112968
0.08848346309298229
0.07696714040014603
0.06203703220603354
0.05392287056345617
0.042419575290314995
0.031062505738471524
0.025223913116843806
0.013801056206951823
3.461547209265821e-05
-0.00947939466769488
-0.01730343937553304
-0.026006028680595136
-0.036638092857603013
-0.04690405520124235
-0.05024820647461956
-0.0447059168115311
-0.04480620876322723
-0.04922631652446345
-0.06825680897694018
-0.09176081943281246
-0.11053552409934696
-0.10563186343378424
-0.09138166852921564
-0.08060946307697478
-0.07395143906445784
-0.06382174562170695
-0.040209504691571016
-0.03858731507491848
-0.04256477055033432
-0.05681951292537405
-0.06162717397445491
-0.058328040206385365
-0.030875416217989973
0.004120493396628263
0.01326267724343461
0.023574000862298817
0.020576615279628716
0.02793982261601301
0.05041746014655541
0.07201863038954999
0.09812094071284942
0.10206941250520139
0.10329796654098265
0.11575894418984277
0.13571771668978597
0.14297401489614386
0.15029788888308154
0.14545014445729626
0.15160355155966654
0.16966803125286292
0.19446367781542953
0.2083119628776494
0.2155178208638744
0.21429435313807527
0.20500108483943388
0.19716146164334883
0.20061206205092805
0.20902278887721956
0.20874503429375024
0.2169548836919844
0.2313007188040412
0.255534949805787
0.25221320669375646
0.24003806388839144
0.22916437718501803
0.23126820566044504
0.24550841810086724
0.25150703017779164
0.23803305935836447
0.21948023621004334
0.21877758097974787
0.23168555341464753
0.2429690836175533
0.24043466950766576
0.2292727976980913
0.22290342661609905
0.2441969706598065
0.25956085987254285
0.2628584028410775
0.24886088656475838
0.2462054350415398
0.2581955043245199
0.28080621846652315
0.2956668808835456
0.30057785905934753
0.30218800551836694
0.31355459713587414
0.3275958433127341
0.34089428981247827
0.34027099596211197
0.33543837123184816
0.32970602169552005
0.33035692450627147
0.33949342907251445
0.3421367173707188
0.3410151736052759
0.3397810521736622
0.3408745422622319
0.3296556114372126
0.3110227313388498
0.3039197697992955
0.3031909262194556
0.3122319933230004
0.31979773496492647
0.32380335291666557
0.3130141662642121
0.29969645073601286
0.28635426334569897
0.26877991679254404
0.2595499495396442
0.2630010928966094
0.27217755694289225
0.2798155680033142
0.27681650353091297
0.2690295149340827
0.26107725302467627
0.2505570279244941
0.246654646871405
0.23840743933763034
0.23895154278291433
0.23333966468238002
0.21851644977819676
0.21003186577809413
0.2112204092898381
0.20557240561937282
0.18908104323123037
0.18214402088173096
0.17280496941053958
0.17107220350660737
0.17046981174321885
0.16787386369288035
0.1671753730624102
0.15334308556966908
0.13880856407130862
0.12806918873437406
0.11707908675551565
0.10789791427384621
0.10503018393863059
0.10169436224404264
0.11339126343293533
0.12175615931305685
0.10232901021919258
0.06117414167430953
0.03579640854137264
0.03380516251660078
0.034440447359759443
0.00871362691347277
-0.006744486170468008
-0.027169199818281423
-0.03574395048960064
-0.0473785337601804
-0.0757526708466927
-0.1067680226103243
-0.1293698866209583
-0.13463267613308436
-0.13773229828083233
-0.1388871982136106
-0.1557062578867675
-0.1853506108773878
-0.19812668683323906
-0.19699322410339837
-0.1894881805907554
-0.19108681297429317
-0.20658840151628657
-0.21394417291568457
-0.21064236170205383
-0.20058752965516666
-0.19410152958647278
-0.21219654080930275
-0.21791540255799774
-0.21459275870616154
-0.21076236338197357
-0.20886647622546714
-0.20617137131156046
-0.2103302155204356
-0.21649597237641818
-0.20030230888110523
-0.1883542571803569
-0.16606995817322226
-0.16220825565954952
-0.16403393960265675
-0.17041390995990577
-0.16557238327750937
-0.15570839548307086
-0.14549728707154394
-0.14388723838532472
-0.1457883743734428
-0.13451256276437631
-0.11289801372690358
-0.09049129960244001
-0.06950881758289003
-0.07077393145463823
-0.08550103487674532
-0.08841633064494855
-0.07437585398234747
-0.06233183646040847
-0.059628806966800056
-0.05925684136469443
-0.056940209057351705
-0.05174771810420058
-0.03876915967738292
-0.04024173718219999
-0.050622355259826904
-0.05215138178792032
-0.05147241312259314
-0.03935258255892637
-0.039508889579840153
-0.059479195971253694
-0.08360500421844295
-0.09744549701874226
-0.09388219954109117
-0.09631247164729052
-0.095483530756733
-0.10777900485774966
-0.11907151056164252
-0.11920684190073438
-0.11085487120152795
-0.10798499874252304
-0.11572688839486052
-0.13250753035018845
-0.12869104183515775
-0.11920669746867088
-0.11228296909386316
-0.11066840311472986
-0.12200701396455965
-0.1307636751200589
-0.11775382640002968
-0.09218442841707758
-0.07853146851294883
-0.08419238615599571
-0.08483744619075509
-0.07109754839152917
-0.05710725806262917
-0.055785591937702446
-0.0678487830507032
-0.08882724801199032
-0.0913647793656769
-0.07983996402296517
-0.058017818308275154
-0.024165599173437764
-0.016824761266735266
-0.03150152021497541
-0.04263674206797231
-0.03900287777744986
-0.03865551947566071
-0.041022752889272984
-0.05650461426453169
-0.06375050225165095
-0.051465334045713004
-0.036718820672124425
-0.029852465018474637
-0.0338695450977986
-0.0426046935121257
-0.06361142621638997
-0.0711688937646186
-0.08104653725711168
-0.08245537999493997
-0.08351794812845373
-0.07739747738056936
-0.08868357563483827
-0.08489852160426267
-0.07994748699617077
-0.08712632525280874
-0.1017296199344652
-0.11753116343232332
-0.11213836216507421
-0.10222755753709727
-0.09533096947556756
-0.0965517990147006
-0.11344823302107106
-0.11636432527920242
-0.11716165357666639
-0.12161569475528587
-0.1281958519734573
-0.1183008333179004
-0.12278306176067182
-0.11544871431794532
-0.10613027579339813
-0.09826905167321028
-0.09410193933007323
-0.08733650718511847
-0.07474558193456254
-0.0573862734460213
-0.04059817190685804
-0.023320868375439778
-0.008162011566961799
-0.00047958487495969847
0.009319552043032843
0.015876665257261967
0.03458696380136799
0.05857486343589416
0.08280378321693047
0.09400826501834231
0.10243251441513884
0.09575372551854036
0.10194633851498626
0.08827670387203806
0.0604806140822475
0.03835193719988725
0.052081666846447564
0.07207242553442746
0.07363213146804293
0.05223189788654774
0.021064504588434584
-0.01001203013562548
-0.02562578535120652
-0.036323318652227495
-0.05324310451346855
-0.07896257343617194
-0.09468351618576386
-0.10936461741966619
-0.11913798461323015
-0.12958821964301345
-0.14049729549200818
-0.17697342053335516
-0.21621621820660988
-0.2244436643191018
-0.21609548194980327
-0.22332027841772176
-0.245932531207054
-0.27643810308578726
-0.29118714504008364
-0.28577458413932166
-0.27015963172484136
-0.2622592411634434
-0.2711659313539211
-0.2733466820669742
-0.27764222943654876
-0.27430629559654546
-0.26216469376347945
-0.25258212778717903
-0.24169228536865328
-0.22931661840061943
-0.20523095905996525
-0.1766280172660966
-0.15529881730228898
-0.13779522636994507
-0.12282138952785955
-0.10573814187837609
-0.0816116190017823
-0.06107830269286325
-0.04776013913452787
-0.038871516295541426
-0.00538066996375206
0.01888780389236055
0.037042670754690143
0.040609312280176973
0.04035370971471487
0.04614500910602001
0.07977484687007512
0.11148713706547403
0.12925093837508672
0.10641567468542053
0.08563089213184087
0.09187764665385564
0.10683610006841411
0.10428415466239939
0.08427505865831225
0.04841927738047061
0.025516894439643407
0.022426116681365148
0.02497717246344763
0.02726546294488031
0.007236713949540643
-0.033340025254028016
-0.0798609100534378
-0.11953796139145396
-0.1514725780122388
-0.1726218009881882
-0.19244947509180177
-0.20577095880590698
-0.21686426915046206
-0.23642222526598988
-0.2562280582646636
-0.27997983004568067
-0.3129184831561116
-0.3358926794073705
-0.345947661154322
-0.3538866780979486
-0.3638278316174517
-0.3912103795298034
-0.39810308365588204
-0.3844474740060512
-0.37585242978956335
-0.36897149629161413
-0.3778867940357299
-0.377959695718358
-0.37174394157478974
-0.34809333546880783
-0.31450675819424406
-0.26508464021251593
-0.2250795242406927
-0.18497940999093482
-0.1297998372048904
-0.05128691038014518
0.03347159374860222
0.11439653846497044
0.19879655374180227
0.28695933006663876
0.3831411775061718
0.48580588507104916
0.5839666619998302
0.691672614981329
0.8116986106385211
0.9288351834936629
1.0333887621220006
1.1318650159028938
1.2188969289926033
1.2903687451736359
1.355624069170158
1.4319744586028573
1.4922134022776707
1.5396855657924584
1.559461801030194
1.5610608700368411
1.54518660844258
1.5012855420732336
1.4490467287052837
1.355397094126379
1.2358113282850849
1.1164697846446887
1.002824378592634
0.8731871075373694
0.7229744331007373
0.5439530053077114
0.34956397769668895
0.16423868417236018
-0.011698303672593415
-0.16083683006020602
-0.29995137947914835
-0.4229404170977853
-0.5316508513196663
-0.6276421983789581
-0.709748510045374
-0.7850669553612465
-0.8466839769127757
-0.8813065220249976
-0.8768929208268282
-0.8476773467327617
-0.81616672481102
-0.783541262328015
-0.753457067930393
-0.718619181489292
-0.6729873911653893
-0.6322208872854665
-0.59858391984446
-0.5688782381516327
-0.5213193315368271
-0.45001685708450384
-0.3799247098503524
-0.31953876698067746
-0.2718794186420777
-0.25188220816344414
-0.23085576186277773
-0.19171165903598558
-0.13536909321341595
-0.08807498527515505
-0.045556589820916635
-0.018791502569609483
0.014820940010191729
0.05928109103196133
0.08900644940319911
0.11688459307031485
0.12775154694776772
0.13973070981617255
0.16151287557368887
0.17191238929995764
0.18578242302850512
0.18382979113407222
0.17120570783414613
0.16072234526859253
0.15179680992759048
0.15242190164582065
0.1553629323461281
0.1384616071616648
0.11498534426497364
0.09578586373880135
0.07983710462856321
0.05789464120950695
0.03324367320370531
-0.0011906499091373158
-0.02561710126446519
-0.031221027973153164
-0.03115325251441349
-0.051988956417133296
-0.09619663478086989
-0.14519291392986403
-0.16880559230454462
-0.17593278322497735
-0.17701148999556182
-0.18798737135130925
-0.21353360668849017
-0.2519356778830136
-0.2728168980604654
-0.29220878570653647
-0.29534771300683377
-0.3019796273467334
-0.2961746671916396
-0.28583323519033105
-0.2791889892336095
-0.2808415583423768
-0.28900956049671916
-0.30193801879491905
-0.2992825885122258
-0.2793372589064122
-0.25781198934904465
-0.2370098610186056
-0.2076558303106917
-0.1800203838755389
-0.16225085086956703
-0.14419542125311802
-0.13646051970892675
-0.12677053454854367
-0.11688901415554513
-0.09057435853612969
-0.04775465947934329
0.005545168654654389
0.036760433186639754
0.036529714444079826
0.02754669201474644
0.02122990612176818
0.033592793624543746
0.057170860393134106
0.08848720641335513
0.10913390029388725
0.10896476850296934
0.10226929076670892
0.09908811129755501
0.10368725511770245
0.10875986628992912
0.1091577334114188
0.10280595422217935
0.09711018208482168
0.09552842661042146
0.10458817181259879
0.11527010235944718
0.09690310555893283
0.08352174879367169
0.06705916069980344
0.06692065922621006
0.06711911276519732
0.0580791728594855
0.03816075775157689
0.01640318796162751
-0.0033452139591164873
-0.004730159574265674
-0.021145503687880894
-0.03442299270727252
-0.039222202077970336
-0.06591893461673252
-0.09699358856824028
-0.11738331981328193
-0.13401312222845216
-0.13612620166315467
-0.13373435750778817
-0.12679746221068736
-0.11498861442599467
-0.10562812349791284
-0.10910582996791106
-0.11477315532171269
-0.12054260872611262
-0.11335680188660573
-0.09390507658482804
-0.0860821162742317
-0.07626027215433677
-0.05753583116364895
-0.03247381214693368
-0.011275328056865078
0.008059378083646094
0.0058602689257383055
0.010365132658770372
0.016549553492363582
0.041667251608322735
0.07001831792097533
0.08468716059292286
0.08341218299595017
0.0822490617869458
0.10367088093755797
0.13415240755747895
0.16231570282348706
0.16611432454418523
0.16013331913099174
0.15713987777540675
0.17754348882040621
0.20606372489967756
0.21949947249367466
0.216634091240294
0.21854016550668953
0.21426097018177787
0.22672371166201927
0.24896084564675766
0.25082257987967266
0.23115769020088062
0.22330520505472445
0.22978956022468505
0.2506989485460305
0.2577456620336029
0.2482775932186528
0.2275778072470651
0.22076437819002587
0.23128776022819988
0.24001411398577963
0.24458944607145028
0.2450961717844855
0.2483243595299708
0.248545980461417
0.24948548976844356
0.24112727205791015
0.2299257179147047
0.22049544536884563
0.21988328547666364
0.22170003012870695
0.22992274268966184
0.23722878116047158
0.2344559744335396
0.2347104579911902
0.23003488533766567
0.2420651405042679
0.23719735899171515
0.23003698718221466
0.22786102350262472
0.23336532245391772
0.2498531876235554
0.2607907807650202
0.25544126401216205
0.2438184298528049
0.2539411903170337
0.29307948267947165
0.3166290524324888
0.3169129353513287
0.3192150905397344
0.32685270567544866
0.3330778289057586
0.3415233043720771
0.3485039618492776
0.3491199601334841
0.34763222484156586
0.344950994055941
0.354198718816112
0.36714256156921443
0.3761654021646589
0.3687726115222527
0.35383508910163625
0.34236381279906164
0.3374390423141781
0.3348199727855073
0.3223337213443912
0.3070335886582364
0.3078745482411645
0.3081079902919796
0.30105456701605465
0.2836951884431565
0.2609425547998349
0.23618066425416842
0.23201493696095712
0.23351248885324238
0.2434351573767989
0.228531505370604
0.19552070476320665
0.16332308006143803
0.15024344802829678
0.14894826783688161
0.16308463300928902
0.14228202469999285
0.10696190666856116
0.08211902625640223
0.08023309658283352
0.08204444992906824
0.07805602739018676
0.05419166111607344
0.030856899941660534
0.012283660506614977
0.006671355561865103
0.012455582287036672
0.010985102346027151
-0.0011307691416043042
-0.030330896448986518
-0.04185388519509795
-0.05403105066409344
-0.0601656612687886
-0.07522153671613276
-0.08455628555846566
-0.10190089822266442
-0.10649720572432672
-0.10718081893516038
-0.11735828463530919
-0.13242560609353998
-0.15082434348578483
-0.16488725996635847
-0.16938318273658556
-0.15816082920726168
-0.15405484998748337
-0.1692161183332522
-0.20175578899957133
-0.213164512743546
-0.20643355634528485
-0.20683082066591657
-0.2146024171941117
-0.21687473527338694
-0.2203071837149471
-0.22149284571528036
-0.21458826545392382
-0.2270176376658987
-0.24104815214869033
-0.2648922634243338
-0.2576395900173218
-0.2391139473585437
-0.22273911862667742
-0.22225253853893417
-0.22881860877448842
-0.2372721876250534
-0.23543793415891381
-0.2123692666429434
-0.19161008052050418
-0.18023296826340487
-0.17433139605420847
-0.16542724284960864
-0.15115044023680926
-0.1416463240561732
-0.131194995029729
-0.12018154905481303
-0.10624538896216301
-0.09190799309653386
-0.07968922777299242
-0.07363196457861382
-0.08113187688361279
-0.08303093159279043
-0.08152601218180912
-0.08124819756840895
-0.07491948691637708
-0.07722445818078096
-0.0842236968877078
-0.08494922649592516
-0.07300007657071296
-0.059968939690921465
-0.05896357880329932
-0.07423153318600301
-0.0913952957213761
-0.11407153406821521
-0.11931866142666861
-0.10310591593931011
-0.07878837801696151
-0.07954916075789192
-0.09492777282001101
-0.09736994658870704
-0.09715717057169157
-0.10578914664673995
-0.12957685899988436
-0.1610995768099673
-0.1712721849069973
-0.15420469542025916
-0.13940991593096172
-0.14816730958569505
-0.1602621297536657
-0.1734922418173086
-0.18749586354645392
-0.2043628251560606
-0.21642908936844973
-0.20932897611755466
-0.2028867097964935
-0.19466265959999587
-0.18406088793893222
-0.1772116125727493
-0.1823936097535645
-0.19080888776156799
-0.19061930809106964
-0.17060768749304212
-0.14275847701551664
-0.11387704107115625
-0.1124422409640085
-0.1080435751801398
-0.10933515001194384
-0.09903564327903704
-0.07908993748500903
-0.052052866527529836
-0.050382618937343984
-0.05160537231219382
-0.03720898039255034
-0.030480873111336088
-0.022353361181326362
-0.02449957864336947
-0.019591589757918592
-0.028128675766618906
-0.03825022348458552
-0.029842356304134128
-0.023972804322381303
-0.030098333702728873
-0.03599439276858753
-0.05078232353851821
-0.05915606346064137
-0.06349432968735542
-0.06219517520383848
-0.07347917122620043
-0.06428891357369691
-0.0583159654357349
-0.067647133374214
-0.08666295332409603
-0.1051612059865376
-0.10927425077599491
-0.1147330974687131
-0.11926488358675824
-0.12700746440574776
-0.13294841039500155
-0.14428798610455498
-0.15114597756518927
-0.15311218696609477
-0.15589140607960333
-0.1581832143680629
-0.16419480725833238
-0.16991011560268923
-0.18658788477045304
-0.18369803399071585
-0.16307534806173032
-0.16410739635731808
-0.1636429703230032
-0.1568584481527032
-0.14047360347354013
-0.12129519589576246
-0.10187352061502233
-0.08904550202898757
-0.08233718758207374
-0.0754877904938321
-0.06621278877002144
-0.041554289669216246
-0.03433287693756233
-0.041973475945121
-0.04938973591058944
-0.024404228157945473
0.008711129477159034
0.04155973984395901
0.037680053570335624
0.012499003456691317
0.0003771597772398536
0.007311335884893139
0.012767302469549748
0.008741453638717757
0.0025085252466654044
0.0004493015100889579
0.010492621729933128
0.021059985031291244
0.01693385947029166
-0.002127912243195946
-0.02902154212797431
-0.05357031474166588
-0.05977930051962615
-0.06398142666597315
-0.06784498441452039
-0.0824830165652809
-0.1080099993420084
-0.12316892199426861
-0.1390415499638886
-0.15938074547259984
-0.17389987194444587
-0.18421408697617342
-0.2001814244355473
-0.21610349696868236
-0.22659658053677317
-0.23147695232878057
-0.24705439991318076
-0.28446858979461176
-0.3155137879625183
-0.31383715886958224
-0.2936955364969351
-0.28371342232000185
-0.2866034307827708
-0.2925940506283533
-0.285533275116162
-0.28133852036635754
-0.28161247787434246
-0.2919519066130307
-0.28715870669425386
-0.2652513614094847
-0.22701768360632357
-0.19767891927447914
-0.17745192750401043
-0.16687458579287986
-0.15673271992968763
-0.14178908289423753
-0.101250034019905
-0.05704716528665693
-0.02409321104328463
-0.009668222299467242
-0.012805750276242008
-0.010862485791199692
0.0026455959567177937
0.01835158602011187
0.024162399517882297
0.02204518385440756
0.03016590867167189
0.04047470027809955
0.041594464572476175
0.04933806819588822
0.06276677990420793
0.040693829680443425
0.018864992416496296
-0.007221955509297506
-0.028610204988173866
-0.04577175726658502
-0.06433669811412188
-0.08533004524914203
-0.09968117662222893
-0.10684102805811176
-0.12485521301158814
-0.15863089834682967
-0.1990247990784613
-0.23322219035156333
-0.24046853165748036
-0.25188420036962356
-0.2680760462844609
-0.30552526965078974
-0.34837653215917147
-0.3713285844829843
-0.3881579430551698
-0.40716943302813646
-0.42570659889987117
-0.4365629518883802
-0.4316464701306977
-0.41174687294843115
-0.4054572091224939
-0.41790887212501726
