time,amplitude
0,1.101686283
0.002777778,1.064895828
0.005555556,0.991921847
0.008333334,0.886843935
0.011111112,0.750135268
0.01388889,0.594659447
0.016666668,0.434350457
0.019444446,0.273579327
0.022222224,0.127155902
0.025000002,-0.001025031
0.02777778,-0.111760292
0.030555558,-0.201485304
0.033333336,-0.262008156
0.036111114,-0.303796118
0.038888892,-0.327570974
0.04166667,-0.329123146
0.044444448,-0.315595846
0.047222226,-0.293267614
0.050000004,-0.264096013
0.052777782,-0.230395106
0.05555556,-0.197038647
0.058333338,-0.164857726
0.061111116,-0.135877638
0.063888894,-0.112190623
0.066666672,-0.092624202
0.06944445,-0.077197991
0.072222228,-0.067239286
0.075000006,-0.059724916
0.077777784,-0.053839473
0.080555562,-0.049174789
0.08333334,-0.045690931
0.086111118,-0.042682479
0.088888896,-0.040033813
0.091666674,-0.037586668
0.094444452,-0.0350574
0.09722223,-0.032374801
0.100000008,-0.029486289
0.102777786,-0.026152427
0.105555564,-0.02254876
0.108333342,-0.018694591
0.11111112,-0.0145675
0.113888898,-0.010069565
0.116666676,-0.005274745
0.119444454,-0.000170983
0.122222232,0.005427677
0.12500001,0.011419781
0.127777788,0.017769408
0.130555566,0.02453002
0.133333344,0.031855716
0.136111122,0.039564434
0.1388889,0.047657828
0.141666678,0.056283246
0.144444456,0.06539084
0.147222234,0.074880805
0.150000012,0.084751121
0.15277779,0.095223931
0.155555568,0.106053729
0.158333346,0.117253375
0.161111124,0.128942128
0.163888902,0.141176627
0.16666668,0.153740675
0.169444458,0.166600848
0.172222236,0.179789976
0.175000014,0.193129809
0.177777792,0.206562148
0.18055557,0.220051924
0.183333348,0.233497602
0.186111126,0.24684562
0.188888904,0.260067338
0.191666682,0.27303747
0.19444446,0.285687486
0.197222238,0.29803724
0.200000016,0.310060232
0.202777794,0.321441371
0.205555572,0.332362047
0.20833335,0.342799129
0.211111128,0.352583527
0.213888906,0.361569048
0.216666684,0.369931287
0.219444462,0.377649406
0.22222224,0.384330566
0.225000018,0.39017607
0.227777796,0.395254253
0.230555574,0.399441623
0.233333352,0.402371328
0.23611113,0.404423963
0.238888908,0.405583585
0.241666686,0.405472315
0.244444464,0.404156412
0.247222242,0.401829084
0.25000002,0.398461698
0.252777798,0.393448979
0.255555576,0.387522902
0.258333354,0.380719523
0.261111132,0.372894617
0.26388891,0.364073974
0.266666688,0.354596672
0.269444466,0.344496084
0.272222244,0.3335747
0.275000022,0.322132095
0.2777778,0.310266612
0.280555578,0.297970871
0.283333356,0.28521813
0.286111134,0.27222612
0.288888912,0.259022105
0.29166669,0.245600506
0.294444468,0.232066885
0.297222246,0.218484633
0.300000024,0.204878341
0.302777802,0.191334573
0.30555558,0.177888709
0.308333358,0.164561466
0.311111136,0.151425661
0.313888914,0.138570551
0.316666692,0.125955486
0.31944447,0.113598035
0.322222248,0.101685824
0.325000026,0.090154535
0.327777804,0.078981193
0.330555582,0.06823231
0.33333336,0.058102867
0.336111138,0.048414906
0.338888916,0.039179887
0.341666694,0.030598127
0.344444472,0.022633785
0.34722225,0.01515157
0.350000028,0.0081444
0.352777806,0.001864174
0.355555584,-0.003995606
0.358333362,-0.009444775
0.36111114,-0.014401157
0.363888918,-0.018850504
0.366666696,-0.022949682
0.369444474,-0.026707891
0.372222252,-0.029986227
0.37500003,-0.032930905
0.377777808,-0.035590316
0.380555586,-0.037941534
0.383333364,-0.039914682
0.386111142,-0.041654332
0.38888892,-0.043168253
0.391666698,-0.044392919
0.394444476,-0.045379323
0.397222254,-0.046187027
0.400000032,-0.046823173
0.40277781,-0.047210332
0.405555588,-0.04746188
0.408333366,-0.047584119
0.411111144,-0.047557842
0.413888922,-0.047389623
0.4166667,-0.04712923
0.419444478,-0.046782115
0.422222256,-0.046323456
0.425000034,-0.045796281
0.427777812,-0.045214575
0.43055559,-0.044578692
0.433333368,-0.043888616
0.436111146,-0.043172312
0.438888924,-0.042433298
0.441666702,-0.041671731
0.44444448,-0.04088879
0.447222258,-0.040090801
0.450000036,-0.039278997
0.452777814,-0.038450687
0.455555592,-0.037615608
0.45833337,-0.036774931
0.461111148,-0.035929695
0.463888926,-0.03508337
0.466666704,-0.034238194
0.469444482,-0.033395103
0.47222226,-0.032558183
0.475000038,-0.031728199
0.477777816,-0.030905274
0.480555594,-0.030091294
0.483333372,-0.029291514
0.48611115,-0.028502294
0.488888928,-0.027724037
0.491666706,-0.026961865
0.494444484,-0.026215209
0.497222262,-0.025481244
0.50000004,-0.024760139
0.502777818,-0.024060221
0.505555596,-0.023373254
0.508333374,-0.022699099
0.511111152,-0.022040673
0.51388893,-0.021398223
0.516666708,-0.020766188
0.519444486,-0.020143929
0.522222264,-0.019533847
0.525000042,-0.018930465
0.52777782,-0.018331824
0.530555598,-0.017737149
0.533333376,-0.017143716
0.536111154,-0.016548679
0.538888932,-0.015954524
0.54166671,-0.015373265
0.544444488,-0.014793256
0.547222266,-0.014198666
0.550000044,-0.013580146
0.552777822,-0.012879208
0.5555556,-0.012098894
0.558333378,-0.011227763
0.561111156,-0.010219274
0.563888934,-0.009015164
0.566666712,-0.007643106
0.56944449,-0.006090028
0.572222268,-0.004218041
0.575000046,-0.002064152
0.577777824,0.000360226
0.580555602,0.003111297
0.58333338,0.006360512
0.586111158,0.009979925
0.588888936,0.013986334
0.591666714,0.018571682
0.594444492,0.023742456
0.59722227,0.029412273
0.600000048,0.035599561
0.602777826,0.042710595
0.605555604,0.050442978
0.608333382,0.058818152
0.61111116,0.068041499
0.613888938,0.078482361
0.616666716,0.089750471
0.619444494,0.101795679
0.622222272,0.114683657
0.62500005,0.127943276
0.627777828,0.14142475
0.630555606,0.155033776
0.633333384,0.168509246
0.636111162,0.181731221
0.63888894,0.194632838
0.641666718,0.206915083
0.644444496,0.218435471
0.647222274,0.229256044
0.650000052,0.239322602
0.65277783,0.247952551
0.655555608,0.255582785
0.658333386,0.262175405
0.661111164,0.267392037
0.663888942,0.270975844
0.66666672,0.273318021
0.669444498,0.274393303
0.672222276,0.273492524
0.675000054,0.271060961
0.677777832,0.267254345
0.68055561,0.261884646
0.683333388,0.254410565
0.686111166,0.245645959
0.688888944,0.235680831
0.691666722,0.22437003
0.6944445,0.212173121
0.697222278,0.199421265
0.700000056,0.186206808
0.702777834,0.172602505
0.705555612,0.158957421
0.70833339,0.145337401
0.711111168,0.13188586
0.713888946,0.118828624
0.716666724,0.106153744
0.719444502,0.093905924
0.72222228,0.082433517
0.725000058,0.071631699
0.727777836,0.061453715
0.730555614,0.052008762
0.733333392,0.043589202
0.73611117,0.035860582
0.738888948,0.028968199
0.741666726,0.023820495
0.744444504,0.020346331
0.747222282,0.017686626
0.75000006,0.0155268
0.752777838,0.013047747
0.755555616,0.009819547
0.758333394,0.005688844
0.761111172,0.000110558
0.76388895,-0.007424945
0.766666728,-0.01647505
0.769444506,-0.027067392
0.772222284,-0.039944051
0.775000062,-0.054347549
0.77777784,-0.069953452
0.780555618,-0.086737964
0.783333396,-0.104414311
0.786111174,-0.122162948
0.788888952,-0.139724137
0.79166673,-0.156263985
0.794444508,-0.170516922
0.797222286,-0.179937782
0.800000064,-0.182725071
0.802777842,-0.165149232
0.80555562,-0.131217866
0.808333398,-0.080289586
0.811111176,-0.006778564
0.813888954,0.091025159
0.816666732,0.204612308
0.81944451,0.332777288
0.822222288,0.476742923
0.825000066,0.624984942
0.827777844,0.772167706
0.830555622,0.912691985
0.8333334,1.021808009
0.836111178,1.099575852
0.838888956,1.143079937
0.841666734,1.133579561
0.844444512,1.076478542
0.84722229,0.985458463
0.850000068,0.863015561
0.852777846,0.709877831
0.855555624,0.550824343
0.858333402,0.389846556
0.86111118,0.234776832
0.863888958,0.097266189
0.866666736,-0.023619681
0.869444514,-0.126316506
0.872222292,-0.198796072
0.87500007,-0.249362496
0.877777848,-0.281436286
0.880555626,-0.293814541
0.883333404,-0.285222102
0.886111182,-0.267256392
0.88888896,-0.241663912
0.891666738,-0.210074429
0.894444516,-0.177324531
0.897222294,-0.145216916
0.900000072,-0.114693833
0.90277785,-0.08933276
0.905555628,-0.067820272
0.908333406,-0.050043705
0.911111184,-0.036702552
0.913888962,-0.026522089
0.91666674,-0.018175512
0.919444518,-0.011455649
0.922222296,-0.006626856
0.925000074,-0.002796676
0.927777852,0.000309992
0.93055563,0.002787323
0.933333408,0.004850394
0.936111186,0.006845858
0.938888964,0.008851861
0.941666742,0.011071796
0.94444452,0.013671852
0.947222298,0.016640727
0.950000076,0.020017259
0.952777854,0.024151504
0.955555632,0.028765786
0.95833341,0.033848383
0.961111188,0.039491975
0.963888966,0.045648023
0.966666744,0.052085957
0.969444522,0.058772962
0.9722223,0.065806704
0.975000078,0.073261287
0.977777856,0.081098078
0.980555634,0.089373993
0.983333412,0.098247807
0.98611119,0.107521398
0.988888968,0.117193552
0.991666746,0.127408016
0.994444524,0.138100015
0.997222302,0.149161973
1.00000008,0.160586655
1.002777858,0.172558224
1.005555636,0.184833309
1.008333414,0.19739692
1.011111192,0.21028998
1.01388897,0.223481083
1.016666748,0.236848663
1.019444526,0.25037171
1.022222304,0.264048336
1.025000082,0.277763654
1.02777786,0.291496815
1.030555638,0.305231439
1.033333416,0.318870791
1.036111194,0.332345683
1.038888972,0.345615001
1.04166675,0.358491565
1.044444528,0.370888178
1.047222306,0.382844677
1.050000084,0.394327362
1.052777862,0.404908048
1.05555564,0.414860921
1.058333418,0.424161971
1.061111196,0.432598203
1.063888974,0.440006743
1.066666752,0.446632709
1.06944453,0.452459585
1.072222308,0.457037576
1.075000086,0.460645384
1.077777864,0.463380278
1.080555642,0.465121301
1.08333342,0.465518247
1.086111198,0.465015714
1.088888976,0.463614371
1.091666754,0.460981999
1.094444532,0.457246967
1.09722231,0.452643488
1.100000088,0.447179746
1.102777866,0.440295267
1.105555644,0.432570332
1.108333422,0.424045435
1.1111112,0.414604873
1.113888978,0.404298786
1.116666756,0.393436994
1.119444534,0.382055767
1.122222312,0.370018161
1.12500009,0.357588579
1.127777868,0.344853099
1.130555646,0.331821313
1.133333424,0.31851481
1.136111202,0.305091202
1.13888898,0.291577586
1.141666758,0.278013081
1.144444536,0.264484646
1.147222314,0.251023238
1.150000092,0.237651758
1.15277787,0.224517844
1.155555648,0.211581617
1.158333426,0.198860573
1.161111204,0.186444961
1.163888982,0.174422944
1.16666676,0.162714983
1.169444538,0.151334385
1.172222316,0.14048719
1.175000094,0.130071012
1.177777872,0.120049291
1.18055565,0.110484077
1.183333428,0.101554439
1.186111206,0.09306013
1.188888984,0.085007957
1.191666762,0.077584925
1.19444454,0.070719743
1.197222318,0.064283142
1.200000096,0.058264515
1.202777874,0.052880666
1.205555652,0.047861105
1.20833343,0.043196279
1.211111208,0.038954991
1.213888986,0.035145989
1.216666764,0.031633726
1.219444542,0.028409504
1.22222232,0.025587718
1.225000098,0.023043357
1.227777876,0.020734891
1.230555654,0.01867977
1.233333432,0.016931502
1.23611121,0.015370561
1.238888988,0.013989801
1.241666766,0.012837454
1.244444544,0.011870541
1.247222322,0.011041449
1.2500001,0.010343864
1.252777878,0.009834379
1.255555656,0.009426108
1.258333434,0.009113955
1.261111212,0.008911345
1.26388899,0.008811897
1.266666768,0.008778725
1.269444546,0.008807577
1.272222324,0.008915407
1.275000102,0.009071504
1.27777788,0.009266102
1.280555658,0.009499063
1.283333436,0.009771409
1.286111214,0.010063981
1.288888992,0.010374432
1.29166677,0.010703343
1.294444548,0.011042808
1.297222326,0.011388359
1.300000104,0.011738584
1.302777882,0.012104887
1.30555566,0.012480327
1.308333438,0.012863022
1.311111216,0.013250862
1.313888994,0.013638242
1.316666772,0.014022374
1.31944455,0.014401876
1.322222328,0.014770082
1.325000106,0.01512674
1.327777884,0.015472278
1.330555662,0.015804343
1.33333344,0.016117685
1.336111218,0.016418646
1.338888996,0.016707411
1.341666774,0.016980112
1.344444552,0.017239773
1.34722233,0.017490142
1.350000108,0.017731902
1.352777886,0.017963558
1.355555664,0.018191955
1.358333442,0.018418419
1.36111122,0.018645224
1.363888998,0.018878038
1.366666776,0.019118725
1.369444554,0.019369107
1.372222332,0.019640904
1.37500011,0.019935295
1.377777888,0.02025296
1.380555666,0.02060039
1.383333444,0.020997931
1.386111222,0.021435453
1.388889,0.021915917
1.391666778,0.02246376
1.394444556,0.023083678
1.397222334,0.023767018
1.400000112,0.024517239
1.40277789,0.025368407
1.405555668,0.026282459
1.408333446,0.027285423
1.411111224,0.02845374
1.413889002,0.029897295
1.41666678,0.031588137
1.419444558,0.033549197
1.422222336,0.035991399
1.425000114,0.038853829
1.427777892,0.04211352
1.43055567,0.045846809
1.433333448,0.050273364
1.436111226,0.055193248
1.438889004,0.060618556
1.441666782,0.066770315
1.44444456,0.073614468
1.447222338,0.081025313
1.450000116,0.08901053
1.452777894,0.097954158
1.455555672,0.107498038
1.45833345,0.117644111
1.461111228,0.128547004
1.463889006,0.140282581
1.466666784,0.152678607
1.469444562,0.165736539
1.47222234,0.179610676
1.475000118,0.193777624
1.477777896,0.208074099
1.480555674,0.222369259
1.483333452,0.236304211
1.48611123,0.249809596
1.488889008,0.26280985
1.491666786,0.274915536
1.494444564,0.28599345
1.497222342,0.296156014
1.50000012,0.305347326
1.502777898,0.312754723
1.505555676,0.318960065
1.508333454,0.323932811
1.511111232,0.327301115
1.51388901,0.32882296
1.516666788,0.328974458
1.519444566,0.32774465
1.522222344,0.324424296
1.525000122,0.319545117
1.5277779,0.313295741
1.530555678,0.30552224
1.533333456,0.295898593
1.536111234,0.285277292
1.538889012,0.273758219
1.54166679,0.261277841
1.544444568,0.248225107
1.547222346,0.234850639
1.550000124,0.221236105
1.552777902,0.2075471
1.55555568,0.193982997
1.558333458,0.180598995
1.561111236,0.167555081
1.563889014,0.155055358
1.566666792,0.1430265
1.56944457,0.131503116
1.572222348,0.120838443
1.575000126,0.110877601
1.577777904,0.101557122
1.580555682,0.092973628
1.58333346,0.085381932
1.586111238,0.078434398
1.588889016,0.07211519
1.591666794,0.066604588
1.594444572,0.061738217
1.59722235,0.057300435
1.600000128,0.053239183
1.602777906,0.049443567
1.605555684,0.045524085
1.608333462,0.041345123
1.61111124,0.036559385
1.613889018,0.030506785
1.616666796,0.023150254
1.619444574,0.014289211
1.622222352,0.002404624
1.62500013,-0.012471114
1.627777908,-0.02991499
1.630555686,-0.050146068
1.633333464,-0.071556232
1.636111242,-0.091829623
1.63888902,-0.110039868
1.641666798,-0.12272569
1.644444576,-0.126617873
1.647222354,-0.121333898
1.650000132,-0.105588906
1.65277791,-0.067128951
1.655555688,-0.012510059
1.658333466,0.059009328
1.661111244,0.153199917
1.663889022,0.271044358
1.6666668,0.402920816
1.669444578,0.546833086
1.672222356,0.698935279
1.675000134,0.845023813
1.677777912,0.978799491
1.68055569,1.090888457
1.683333468,1.15642677
1.686111246,1.186455608
1.688889024,1.180218162
1.691666802,1.123632366
1.69444458,1.026367752
1.697222358,0.901954478
1.700000136,0.7536279
1.702777914,0.587851059
1.705555692,0.426421104
1.70833347,0.271871116
1.711111248,0.131196373
1.713889026,0.012065581
1.716666804,-0.089328798
1.719444582,-0.172192963
1.72222236,-0.226167653
1.725000138,-0.259697243
1.727777916,-0.276560967
1.730555694,-0.276370813
1.733333472,-0.259593661
1.73611125,-0.235279601
1.738889028,-0.20498371
1.741666806,-0.170802804
1.744444584,-0.137115005
1.747222362,-0.105206841
1.75000014,-0.075909229
1.752777918,-0.052822622
1.755555696,-0.033766493
1.758333474,-0.018442444
1.761111252,-0.007162472
1.76388903,0.001191957
1.766666808,0.007842411
1.769444586,0.01299713
1.772222364,0.016612487
1.775000142,0.019572255
1.77777792,0.022124669
1.780555698,0.024416029
1.783333476,0.026745816
1.786111254,0.029245371
1.788889032,0.031953218
1.79166681,0.035021449
1.794444588,0.038390859
1.797222366,0.041946517
1.800000144,0.045655633
1.802777922,0.049721632
1.8055557,0.054051926
1.808333478,0.0586547
1.811111256,0.063615133
1.813889034,0.068994874
1.816666812,0.074691316
1.81944459,0.080709958
1.822222368,0.087228406
1.825000146,0.094132456
1.827777924,0.101382446
1.830555702,0.109025198
1.83333348,0.117196689
1.836111258,0.125721102
1.838889036,0.134598341
1.841666814,0.143960036
1.844444592,0.153787586
1.84722237,0.164010906
1.850000148,0.174643852
1.852777926,0.185856093
1.855555704,0.197366494
1.858333482,0.209153072
1.86111126,0.22123913
1.863889038,0.23357395
1.866666816,0.246045531
1.869444594,0.258631784
1.872222372,0.271312593
1.87500015,0.283997747
1.877777928,0.296657066
1.880555706,0.309253928
1.883333484,0.32167816
1.886111262,0.333935054
1.88888904,0.346002175
1.891666818,0.357746639
1.894444596,0.369122687
1.897222374,0.380166394
1.900000152,0.390855188
1.90277793,0.400869213
1.905555708,0.410407417
1.908333486,0.419447082
1.911111264,0.427816226
1.913889042,0.435364044
1.91666682,0.442268822
1.919444598,0.448507667
1.922222376,0.453667421
1.925000154,0.457948762
1.927777932,0.461418611
1.93055571,0.463941037
1.933333488,0.465104976
1.936111266,0.465318239
1.938889044,0.464583476
1.941666822,0.462582722
1.9444446,0.45949413
1.947222378,0.455567415
1.950000156,0.450821823
1.952777934,0.444830695
1.955555712,0.43812636
1.95833349,0.430729292
1.961111268,0.422508873
1.963889046,0.413458882
1.966666824,0.403847964
1.969444602,0.393697427
1.97222238,0.382812968
1.975000158,0.371443843
1.977777936,0.359673724
1.980555714,0.347486018
1.983333492,0.334832342
1.98611127,0.321921961
1.988889048,0.30877824
1.991666826,0.295378292
1.994444604,0.281824984
1.997222382,0.268189443
2.00000016,0.254495937
2.002777938,0.24081505
2.005555716,0.227208702
2.008333494,0.213702317
2.011111272,0.200373831
2.01388905,0.187335704
2.016666828,0.17456113
2.019444606,0.162076435
2.022222384,0.15011955
2.025000162,0.138607243
2.02777794,0.12748496
2.030555718,0.116795658
2.033333496,0.106676778
2.036111274,0.096932962
2.038889052,0.087561763
2.04166683,0.078695841
2.044444608,0.070283277
2.047222386,0.062230449
2.050000164,0.054535604
2.052777942,0.04741271
2.05555572,0.040634519
2.058333498,0.034197752
2.061111276,0.028180979
2.063889054,0.022612546
2.066666832,0.017361677
2.06944461,0.012423966
2.072222388,0.007939385
2.075000166,0.003778996
2.077777944,-0.000100892
2.080555722,-0.003673842
2.0833335,-0.006862395
2.086111278,-0.009810348
2.088889056,-0.012524733
2.091666834,-0.014937761
2.094444612,-0.017102426
2.09722239,-0.019082066
2.100000168,-0.020884872
2.102777946,-0.022437975
2.105555724,-0.023861885
2.108333502,-0.0251663
2.11111128,-0.026341526
2.113889058,-0.027397722
2.116666836,-0.028361762
2.119444614,-0.02923254
2.122222392,-0.029971371
2.12500017,-0.030618365
2.127777948,-0.031186622
2.130555726,-0.031669553
2.133333504,-0.032046501
2.136111282,-0.032356847
2.13888906,-0.032602187
2.141666838,-0.032762348
2.144444616,-0.032851174
2.147222394,-0.032887173
2.150000172,-0.032872883
2.15277795,-0.032787357
2.155555728,-0.032663865
2.158333506,-0.0325044
2.161111284,-0.032304115
2.163889062,-0.032065426
2.16666684,-0.031801928
2.169444618,-0.031515109
2.172222396,-0.031198016
2.175000174,-0.030861602
2.177777952,-0.030509236
2.18055573,-0.030140298
2.183333508,-0.029752058
2.186111286,-0.029352084
2.188889064,-0.028940717
2.191666842,-0.02851443
2.19444462,-0.028072067
2.197222398,-0.027605577
2.200000176,-0.027108204
2.202777954,-0.026573358
2.205555732,-0.026028446
2.20833351,-0.025477544
2.211111288,-0.024927641
2.213889066,-0.024390839
2.216666844,-0.023868511
2.219444622,-0.023362862
2.2222224,-0.022888085
2.225000178,-0.022439082
2.227777956,-0.022013084
2.230555734,-0.021613072
2.233333512,-0.021244799
2.23611129,-0.020894117
2.238889068,-0.020558965
2.241666846,-0.020238758
2.244444624,-0.019921477
2.247222402,-0.019598932
2.25000018,-0.019266564
2.252777958,-0.018893839
2.255555736,-0.018479119
2.258333514,-0.018015174
2.261111292,-0.01747464
2.26388907,-0.016820387
2.266666848,-0.016065766
2.269444626,-0.015201678
2.272222404,-0.014139688
2.275000182,-0.012897942
2.27777796,-0.011481446
2.280555738,-0.009851529
2.283333516,-0.007888861
2.286111294,-0.005680038
2.288889072,-0.003220797
2.29166685,-0.000414008
2.294444628,0.002828318
2.297222406,0.006479853
2.300000184,0.010577077
2.302777962,0.015524137
2.30555574,0.021051656
2.308333518,0.027173613
2.311111296,0.034067795
2.313889074,0.041835614
2.316666852,0.050236913
2.31944463,0.059268275
2.322222408,0.069215264
2.325000186,0.079801438
2.327777964,0.090924566
2.330555742,0.102616676
2.33333352,0.114944181
2.336111298,0.12760582
2.338889076,0.140558283
2.341666854,0.153784669
2.344444632,0.167082486
2.34722241,0.18034834
2.350000188,0.193528781
2.352777966,0.206335608
2.355555744,0.218643064
2.358333522,0.230359257
2.3611113,0.241144989
2.363889078,0.250622257
2.366666856,0.259021162
2.369444634,0.266283053
2.372222412,0.271667564
2.37500019,0.275539108
2.377777968,0.278038404
2.380555746,0.278963132
2.383333524,0.277762551
2.386111302,0.275163585
2.38888908,0.271183621
2.391666858,0.265365792
2.394444636,0.257998205
2.397222414,0.249475348
2.400000192,0.239847873
2.40277797,0.228706716
2.405555748,0.216818818
2.408333526,0.204246696
2.411111304,0.190949368
2.413889082,0.177173417
2.41666686,0.16320857
2.419444638,0.149131235
2.422222416,0.135130448
2.425000194,0.121368931
2.427777972,0.107888265
2.43055575,0.094800194
2.433333528,0.082402288
2.436111306,0.070539527
2.438889084,0.059237757
2.441666862,0.048769666
2.44444464,0.03910363
2.447222418,0.030085457
2.450000196,0.021718914
2.452777974,0.014387881
2.455555752,0.007655021
2.45833353,0.001497182
2.461111308,-0.003990013
2.463889086,-0.008817204
2.466666864,-0.013275932
2.469444642,-0.017432431
2.47222242,-0.021440714
2.475000198,-0.025677794
2.477777976,-0.030304192
2.480555754,-0.035577619
2.483333532,-0.042376226
2.48611131,-0.050638886
2.488889088,-0.060574718
2.491666866,-0.073409827
2.494444644,-0.089587715
2.497222422,-0.108111443
2.5000002,-0.128784049
2.502777978,-0.150457813
2.505555756,-0.17076819
2.508333534,-0.188808225
2.511111312,-0.202121904
2.51388909,-0.206306877
2.516666868,-0.201381051
2.519444646,-0.186094472
2.522222424,-0.15079629
2.525000202,-0.098172404
2.52777798,-0.029062546
2.530555758,0.059814205
2.533333536,0.174420807
2.536111314,0.30319558
2.538889092,0.444112367
2.54166687,0.595126188
2.544444648,0.743585415
2.547222426,0.882280239
2.550000204,1.006578958
2.552777982,1.087034605
2.55555576,1.133149891
2.558333538,1.144008847
2.561111316,1.108885983
2.563889094,1.026364698
2.566666872,0.914695833
2.56944465,0.777136681
2.572222428,0.61631682
2.575000206,0.454384897
2.577777984,0.295769446
2.580555762,0.14572475
2.58333354,0.016324353
2.586111318,-0.095852313
2.588889096,-0.189885158
2.591666874,-0.257216198
2.594444652,-0.300954789
2.59722243,-0.327468658
2.600000208,-0.337746098
2.602777986,-0.326405217
2.605555764,-0.306448993
2.608333542,-0.279517191
2.61111132,-0.247278653
2.613889098,-0.213916965
2.616666876,-0.181606009
2.619444654,-0.151161836
2.622222432,-0.125551712
2.62500021,-0.104254917
2.627777988,-0.08662029
2.630555766,-0.072912346
2.633333544,-0.062889543
2.636111322,-0.054778687
2.6388891,-0.048383515
2.641666878,-0.043858544
2.644444656,-0.04051179
2.647222434,-0.037881463
2.650000212,-0.035831965
2.65277799,-0.034229768
2.655555768,-0.032652137
2.658333546,-0.031025825
2.661111324,-0.029186173
2.663889102,-0.026920546
2.66666688,-0.024282954
2.669444658,-0.021249335
2.672222436,-0.017586646
2.675000214,-0.013485188
2.677777992,-0.009036573
2.68055577,-0.004245593
2.683333548,0.000796214
2.686111326,0.006056095
2.688889104,0.011567016
2.691666882,0.017529045
2.69444466,0.023927295
2.697222438,0.030683937
2.700000216,0.037804639
2.702777994,0.045532165
2.705555772,0.053636884
2.70833355,0.06211799
2.711111328,0.071067952
2.713889106,0.08052313
2.716666884,0.090335621
2.719444662,0.100499669
2.72222244,0.11116587
2.725000218,0.122180773
2.727777996,0.133490302
2.730555774,0.145114045
2.733333552,0.157102362
2.73611133,0.169296935
2.738889108,0.181681499
2.741666886,0.194281867
2.744444664,0.207058772
2.747222442,0.219928231
2.75000022,0.232861049
2.752777998,0.24574608
2.755555776,0.258513083
2.758333554,0.27113028
2.761111332,0.283494046
2.76388911,0.295468495
2.766666888,0.307102927
2.769444666,0.318369458
2.772222444,0.328990534
2.775000222,0.339052168
2.777778,0.348585375
2.780555778,0.357489085
2.783333556,0.365466429
2.786111334,0.372779503
2.788889112,0.379409396
2.79166689,0.38504956
2.794444668,0.389734233
2.797222446,0.393629615
2.800000224,0.396720726
2.802778002,0.398447381
2.80555578,0.399303211
2.808333558,0.399278351
2.811111336,0.398131973
2.813889114,0.395590868
2.816666892,0.392019905
2.81944467,0.387426193
2.822222448,0.381427561
2.825000226,0.374481888
2.827778004,0.36674031
2.830555782,0.358154952
2.83333356,0.348576662
2.836111338,0.338410723
2.838889116,0.327688103
2.841666894,0.316284104
2.844444672,0.304358155
2.84722245,0.292061387
2.850000228,0.279421812
2.852778006,0.26634109
2.855555784,0.25305678
2.858333562,0.239593109
2.86111134,0.225955649
2.863889118,0.212211016
2.866666896,0.198431753
2.869444674,0.184639087
2.872222452,0.170897635
2.87500023,0.157251951
2.877778008,0.143715185
2.880555786,0.130327697
2.883333564,0.11720561
2.886111342,0.104296173
2.88888912,0.091613852
2.891666898,0.079282396
2.894444676,0.067312564
2.897222454,0.055651188
2.900000232,0.044309775
2.90277801,0.033532628
2.905555788,0.023126731
2.908333566,0.013099744
2.911111344,0.00356239
2.913889122,-0.005412643
2.9166669,-0.013968433
2.919444678,-0.022100251
2.922222456,-0.029582615
2.925000234,-0.036576181
2.927778012,-0.04314681
2.93055579,-0.049254619
2.933333568,-0.05478726
2.936111346,-0.05996015
2.938889124,-0.064783173
2.941666902,-0.069152017
2.94444468,-0.073139173
2.947222458,-0.076836033
2.950000236,-0.080251607
2.952778014,-0.083247535
2.955555792,-0.08600719
2.95833357,-0.088538443
2.961111348,-0.09080055
2.963889126,-0.092793533
2.966666904,-0.094604762
2.969444682,-0.096241085
2.97222246,-0.097638163
2.975000238,-0.09887444
2.977778016,-0.099975598
2.980555794,-0.100933532
2.983333572,-0.101722348
2.98611135,-0.102410319
2.988889128,-0.103002292
2.991666906,-0.103475255
2.994444684,-0.103854485
2.997222462,-0.104165354
3.00000024,-0.104411827
3.002778018,-0.104569232
3.005555796,-0.104680392
3.008333574,-0.104748156
3.011111352,-0.104767596
3.01388913,-0.104742909
3.016666908,-0.104690313
3.019444686,-0.10461177
3.022222464,-0.104500309
3.025000242,-0.104368166
3.02777802,-0.104218925
3.030555798,-0.104051894
3.033333576,-0.103863482
3.036111354,-0.103661309
3.038889132,-0.103444339
3.04166691,-0.103202471
3.044444688,-0.102936249
3.047222466,-0.102653991
3.050000244,-0.10235776
3.052778022,-0.102046657
3.0555558,-0.101730525
3.058333578,-0.10141066
3.061111356,-0.101088832
3.063889134,-0.100769154
3.066666912,-0.100453036
3.06944469,-0.10014139
3.072222468,-0.099839027
3.075000246,-0.099545052
3.077778024,-0.099258816
3.080555802,-0.098981604
3.08333358,-0.098716228
3.086111358,-0.098458014
3.088889136,-0.098206474
3.091666914,-0.097962533
3.094444692,-0.097722714
3.09722247,-0.097484361
3.100000248,-0.097246376
3.102778026,-0.097003095
3.105555804,-0.096752225
3.108333582,-0.096491882
3.11111136,-0.096215773
3.113889138,-0.095914447
3.116666916,-0.095589961
3.119444694,-0.09523982
3.122222472,-0.094841853
3.12500025,-0.094399183
3.127778028,-0.093912484
3.130555806,-0.093371425
3.133333584,-0.092743913
3.136111362,-0.092050017
3.13888914,-0.091286902
3.141666918,-0.090422094
3.144444696,-0.089485829
3.147222474,-0.088453997
3.150000252,-0.087303559
3.15277803,-0.085840038
3.155555808,-0.08411663
3.158333586,-0.082110773
3.161111364,-0.079704852
3.163889142,-0.076785059
3.16666692,-0.073456092
3.169444698,-0.069701065
3.172222476,-0.065253895
3.175000254,-0.060249743
3.177778032,-0.054737241
3.18055581,-0.048637949
3.183333588,-0.041726522
3.186111366,-0.034262538
3.188889144,-0.026242934
3.191666922,-0.017453395
3.1944447,-0.007965085
3.197222478,0.002077183
3.200000256,0.012670411
3.202778034,0.024134645
3.205555812,0.036150011
3.20833359,0.048704674
3.211111368,0.061908909
3.213889146,0.075460309
3.216666924,0.089070202
3.219444702,0.102644502
3.22222248,0.115856308
3.225000258,0.128556986
3.227778036,0.140708558
3.230555814,0.152135865
3.233333592,0.162347313
3.23611137,0.171622577
3.238889148,0.179913545
3.241666926,0.18672689
3.244444704,0.192074551
3.247222482,0.196203134
3.25000026,0.199084642
3.252778038,0.199855895
3.255555816,0.199299519
3.258333594,0.197413579
3.261111372,0.193861437
3.26388915,0.188499766
3.266666928,0.181852072
3.269444706,0.173935441
3.272222484,0.164190487
3.275000262,0.153304289
3.27777804,0.141536869
3.280555818,0.128927807
3.283333596,0.115560778
3.286111374,0.101880891
3.288889152,0.087964803
3.29166693,0.073926785
3.294444708,0.059994924
3.297222486,0.046242052
3.300000264,0.032724596
3.302778042,0.019796562
3.30555582,0.007335592
3.308333598,-0.004627956
3.311111376,-0.015906457
3.313889154,-0.026351477
3.316666932,-0.03616424
3.31944471,-0.045334564
3.322222488,-0.053525912
3.325000266,-0.060995649
3.327778044,-0.067841295
3.330555822,-0.074004331
3.3333336,-0.079343443
3.336111378,-0.08418382
3.338889156,-0.088489934
3.341666934,-0.091885421
3.344444712,-0.095051593
3.34722249,-0.098412464
3.350000268,-0.102194836
3.352778046,-0.107470153
3.355555824,-0.114054444
3.358333602,-0.122053483
3.36111138,-0.132041349
3.363889158,-0.144458156
3.366666936,-0.158691997
3.369444714,-0.174754799
3.372222492,-0.193508652
3.37500027,-0.214165638
3.377778048,-0.235765283
3.380555826,-0.257583547
3.383333604,-0.273572208
3.386111382,-0.282424969
3.38888916,-0.282914154
3.391666938,-0.268755958
3.394444716,-0.2382843
3.397222494,-0.193678185
3.400000272,-0.134286678
3.40277805,-0.049121625
3.405555828,0.05232606
3.408333606,0.170378357
3.411111384,0.309859406
3.413889162,0.465852772
3.41666694,0.621687184
3.419444718,0.771646324
3.422222496,0.895346104
3.425000274,0.988510863
3.427778052,1.051554565
3.43055583,1.077364036
3.433333608,1.050070194
3.436111386,0.988577095
3.438889164,0.89440079
3.441666942,0.76083304
3.44444472,0.608070153
3.447222498,0.44817708
3.450000276,0.286086385
3.452778054,0.136389557
3.455555832,0.001407421
3.45833361,-0.117233387
3.461111388,-0.212059189
3.463889166,-0.27848208
3.466666944,-0.32510787
3.469444722,-0.352692743
3.4722225,-0.356654044
3.475000278,-0.346836952
3.477778056,-0.327062223
3.480555834,-0.298658788
3.483333612,-0.26543174
3.48611139,-0.231980761
3.488889168,-0.199328125
3.491666946,-0.170227333
3.494444724,-0.146035497
3.497222502,-0.125961416
3.50000028,-0.110119553
3.502778058,-0.099965477
3.505555836,-0.091796112
3.508333614,-0.085373211
3.511111392,-0.080637841
3.51388917,-0.077171738
3.516666948,-0.074332915
3.519444726,-0.071982973
3.522222504,-0.069947862
3.525000282,-0.067874879
3.52777806,-0.06568408
3.530555838,-0.063266157
3.533333616,-0.060405893
3.536111394,-0.057235337
3.538889172,-0.053766721
3.54166695,-0.049947787
3.544444728,-0.045858193
3.547222506,-0.041499518
3.550000284,-0.036840229
3.552778062,-0.031645784
3.55555584,-0.026098414
3.558333618,-0.020191095
3.561111396,-0.013819154
3.563889174,-0.006916391
3.566666952,0.000379607
3.56944473,0.008071834
3.572222508,0.016364519
3.575000286,0.025106864
3.577778064,0.034246115
3.580555842,0.04382875
3.58333362,0.053987584
3.586111398,0.064517636
3.588889176,0.075412235
3.591666954,0.086788093
3.594444732,0.0986063
3.59722251,0.110793702
3.600000288,0.123359495
3.602778066,0.136395625
3.605555844,0.14962831
3.608333622,0.163023815
3.6111114,0.176552668
3.613889178,0.190109006
3.616666956,0.203622623
3.619444734,0.217062564
3.622222512,0.230286422
3.62500029,0.243261143
3.627778068,0.255977314
3.630555846,0.268360927
3.633333624,0.280194334
3.636111402,0.291601475
3.63888918,0.302557634
3.641666958,0.312826893
3.644444736,0.322394336
3.647222514,0.331363747
3.650000292,0.339713138
3.65277807,0.346964921
3.655555848,0.353488665
3.658333626,0.359266006
3.661111404,0.364071993
3.663889182,0.36774574
3.66666696,0.37056386
3.669444738,0.372510608
3.672222516,0.373098106
3.675000294,0.372624884
3.677778072,0.371183003
3.68055585,0.36862239
3.683333628,0.364481023
3.686111406,0.359362909
3.688889184,0.35330373
3.691666962,0.346052558
3.69444474,0.337836706
3.697222518,0.328906735
3.700000296,0.319297143
3.702778074,0.308727259
3.705555852,0.297651521
3.70833363,0.286100731
3.711111408,0.274020144
3.713889186,0.261464563
3.716666964,0.248619925
3.719444742,0.235513975
3.72222252,0.222110226
3.725000298,0.208559985
3.727778076,0.19491205
3.730555854,0.181190762
3.733333632,0.16746406
3.73611141,0.153784709
3.738889188,0.140173699
3.741666966,0.12671319
3.744444744,0.113453886
3.747222522,0.100385596
3.7500003,0.087526356
3.752778078,0.07507951
3.755555856,0.062927935
3.758333634,0.051085849
3.761111412,0.039660271
3.76388919,0.028740631
3.766666968,0.018212365
3.769444746,0.00808678
3.772222524,-0.001398246
3.775000302,-0.010374972
3.77777808,-0.018892048
3.780555858,-0.026883217
3.783333636,-0.034199275
3.786111414,-0.041089038
3.788889192,-0.047562457
3.79166697,-0.053490543
3.794444748,-0.0589545
3.797222526,-0.064062562
3.800000304,-0.068823939
3.802778082,-0.073060539
3.80555586,-0.07699698
3.808333638,-0.080641577
3.811111416,-0.083938617
3.813889194,-0.086882363
3.816666972,-0.089584451
3.81944475,-0.092052398
3.822222528,-0.09419474
3.825000306,-0.096113779
3.827778084,-0.097843257
3.830555862,-0.099369516
3.83333364,-0.100650158
3.836111418,-0.101781163
3.838889196,-0.102768357
3.841666974,-0.103573559
3.844444752,-0.104231277
3.84722253,-0.104779502
3.850000308,-0.105223317
3.852778086,-0.105518139
3.855555864,-0.105733114
3.858333642,-0.105872391
3.86111142,-0.105925665
3.863889198,-0.1058983
3.866666976,-0.105819293
3.869444754,-0.105692036
3.872222532,-0.105503542
3.87500031,-0.105277663
3.877778088,-0.105018487
3.880555866,-0.10472178
3.883333644,-0.104375823
3.886111422,-0.104001027
3.8888892,-0.103599009
3.891666978,-0.103163873
3.894444756,-0.10270337
3.897222534,-0.102224713
3.900000312,-0.101729182
3.90277809,-0.101211165
3.905555868,-0.10068196
3.908333646,-0.100142422
3.911111424,-0.099591742
3.913889202,-0.099031403
3.91666698,-0.098465172
3.919444758,-0.097893567
3.922222536,-0.097315378
3.925000314,-0.09673309
3.927778092,-0.096147342
3.93055587,-0.095557903
3.933333648,-0.094963517
3.936111426,-0.094365484
3.938889204,-0.093763559
3.941666982,-0.093155476
3.94444476,-0.09254034
3.947222538,-0.091918598
3.950000316,-0.09128967
3.952778094,-0.090645937
3.955555872,-0.089990786
3.95833365,-0.089323223
3.961111428,-0.08863808
3.963889206,-0.087929457
3.966666984,-0.087201219
3.969444762,-0.08645205
3.97222254,-0.085666541
3.975000318,-0.0848491
3.977778096,-0.084001001
3.980555874,-0.083115856
3.983333652,-0.082186928
3.98611143,-0.081256768
3.988889208,-0.080317018
3.991666986,-0.079313219
3.994444764,-0.078176476
3.997222542,-0.076898099
4.00000032,-0.075456917
4.002778098,-0.07366485
4.005555876,-0.071606918
4.008333654,-0.0692657
4.011111432,-0.066534063
4.01388921,-0.063313341
4.016666988,-0.059706982
4.019444766,-0.055700408
4.022222544,-0.051045468
4.025000322,-0.045866552
4.0277781,-0.040206912
4.030555878,-0.033989634
4.033333656,-0.026988438
4.036111434,-0.019444138
4.038889212,-0.01134875
4.04166699,-0.002474904
4.044444768,0.00712796
4.047222546,0.01732245
4.050000324,0.028113668
4.052778102,0.039891463
4.05555588,0.052286919
4.058333658,0.065235895
4.061111436,0.078743413
4.063889214,0.092538418
4.066666992,0.106374292
4.06944477,0.120168675
4.072222548,0.133624616
4.075000326,0.14660515
4.077778104,0.15907156
4.080555882,0.170856716
4.08333366,0.181480023
4.086111438,0.191193552
4.088889216,0.199942748
4.091666994,0.207220896
4.094444772,0.213002232
4.09722255,0.217515282
4.100000328,0.220717449
4.102778106,0.221627338
4.105555884,0.221039871
4.108333662,0.218928175
4.11111144,0.214854953
4.113889218,0.208749891
4.116666996,0.201342014
4.119444774,0.192717674
4.122222552,0.182564271
4.12500033,0.17150459
4.127778108,0.159741
4.130555886,0.147299768
4.133333664,0.134242646
4.136111442,0.120933252
4.13888922,0.107436628
4.141666998,0.093857597
4.144444776,0.080402014
4.147222554,0.067137459
4.150000332,0.054119283
4.15277811,0.041723223
4.155555888,0.029835604
4.158333666,0.018499244
4.161111444,0.007941167
4.163889222,-0.00155395
4.166667,-0.010027284
4.169444778,-0.017423372
4.172222556,-0.023490896
4.175000334,-0.028903945
4.177778112,-0.033875747
4.18055589,-0.038509038
4.183333668,-0.043077221
4.186111446,-0.047807747
4.188889224,-0.052782946
4.191667002,-0.058312861
4.19444478,-0.064582672
4.197222558,-0.071547383
4.200000336,-0.079268814
4.202778114,-0.088449468
4.205555892,-0.098646344
4.20833367,-0.109894684
4.211111448,-0.12253091
4.213889226,-0.136791898
4.216667004,-0.152270015
4.219444782,-0.168980142
4.22222256,-0.187569604
4.225000338,-0.207478327
4.227778116,-0.226322306
4.230555894,-0.241454228
4.233333672,-0.242131444
4.23611145,-0.229209619
4.238889228,-0.201449775
4.241667006,-0.150514761
4.244444784,-0.077434142
4.247222562,0.012747654
4.25000034,0.119662878
4.252778118,0.24919216
4.255555896,0.38798914
4.258333674,0.533617513
4.261111452,0.68271709
4.26388923,0.822014734
4.266667008,0.942711801
4.269444786,1.039584518
4.272222564,1.086017213
4.275000342,1.088892586
4.27777812,1.053581745
4.280555898,0.975908585
4.283333676,0.852501494
4.286111454,0.710045124
4.288889232,0.553488742
4.29166701,0.391220074
4.294444788,0.236428581
4.297222566,0.092370249
4.300000344,-0.038104973
4.302778122,-0.138749274
4.3055559,-0.219075852
4.308333678,-0.279415176
4.311111456,-0.315453733
4.313889234,-0.328292785
4.316667012,-0.326812279
4.31944479,-0.312523864
4.322222568,-0.285968173
4.325000346,-0.255140078
4.327778124,-0.222216329
4.330555902,-0.188847528
4.33333368,-0.158516205
4.336111458,-0.131469396
4.338889236,-0.108001456
4.341667014,-0.089926356
4.344444792,-0.075922208
4.34722257,-0.064311374
4.350000348,-0.054576461
4.352778126,-0.047204453
4.355555904,-0.040976232
4.358333682,-0.035784987
4.36111146,-0.031667939
4.363889238,-0.028378908
4.366667016,-0.025518889
4.369444794,-0.023004697
4.372222572,-0.020741441
4.37500035,-0.018466823
4.377778128,-0.016106695
4.380555906,-0.01356563
4.383333684,-0.010597065
4.386111462,-0.007258263
4.38888924,-0.003519359
4.391667018,0.000842552
4.394444796,0.005826147
4.397222574,0.01131791
4.400000352,0.017324375
4.40277813,0.024152135
4.405555908,0.031449578
4.408333686,0.039193135
4.411111464,0.047445396
4.413889242,0.056134709
4.41666702,0.065076079
4.419444798,0.07426392
4.422222576,0.083992317
4.425000354,0.094155458
4.427778132,0.104694865
4.43055591,0.115646137
4.433333688,0.127108385
4.436111466,0.138884164
4.438889244,0.15096053
4.441667022,0.163412718
4.4444448,0.176154574
4.447222578,0.189098716
4.450000356,0.202227504
4.452778134,0.215571168
4.455555912,0.22898932
4.45833369,0.242458253
4.461111468,0.255941344
4.463889246,0.269345795
4.466667024,0.282637635
4.469444802,0.295788488
4.47222258,0.308623912
4.475000358,0.321127477
4.477778136,0.333291098
4.480555914,0.345021768
4.483333692,0.356031929
4.48611147,0.36647712
4.488889248,0.376332157
4.491667026,0.385321845
4.494444804,0.393444452
4.497222582,0.400833206
4.50000036,0.407463938
4.502778138,0.412775782
4.505555916,0.417232745
4.508333694,0.420822915
4.511111472,0.423304611
4.51388925,0.424537049
4.516667028,0.42485302
4.519444806,0.424249841
4.522222584,0.422268143
4.525000362,0.419264311
4.52777814,0.41536284
4.530555918,0.410463799
4.533333696,0.404282595
4.536111474,0.397284358
4.538889252,0.389487895
4.54166703,0.380649428
4.544444808,0.370943985
4.547222586,0.360592107
4.550000364,0.349622003
4.552778142,0.337787061
4.55555592,0.325516456
4.558333698,0.312850601
4.561111476,0.299774673
4.563889254,0.28636322
4.566667032,0.272741954
4.56944481,0.258933527
4.572222588,0.244962568
4.575000366,0.230964357
4.577778144,0.216980429
4.580555922,0.203055838
4.5833337,0.18931506
4.586111478,0.175751548
4.588889256,0.162387019
4.591667034,0.149353366
4.594444812,0.136682222
4.59722259,0.124327478
4.600000368,0.112304993
4.602778146,0.100879399
4.605555924,0.089849193
4.608333702,0.079222078
4.61111148,0.069114949
4.613889258,0.059598665
4.616667036,0.05051682
4.619444814,0.041870917
4.622222592,0.033877809
4.62500037,0.026365509
4.627778148,0.019272939
4.630555926,0.012643965
4.633333704,0.006606899
4.636111482,0.000968933
4.63888926,-0.004274774
4.641667038,-0.008999076
4.644444816,-0.013285071
4.647222594,-0.017236779
4.650000372,-0.020863973
4.65277815,-0.024004358
4.655555928,-0.026868811
4.658333706,-0.029465866
4.661111484,-0.031746366
4.663889262,-0.033708
4.66666704,-0.03545297
4.669444818,-0.036988726
4.672222596,-0.038235772
4.675000374,-0.039286396
4.677778152,-0.040170853
4.68055593,-0.040877841
4.683333708,-0.041371554
4.686111486,-0.04173576
4.688889264,-0.041975605
4.691667042,-0.042058248
4.69444482,-0.042014583
4.697222598,-0.041878141
4.700000376,-0.041653871
4.702778154,-0.04130652
4.705555932,-0.040894316
4.70833371,-0.040420936
4.711111488,-0.039878716
4.713889266,-0.039272565
4.716667044,-0.038625505
4.719444822,-0.037940139
4.7222226,-0.037205146
4.725000378,-0.036436355
4.727778156,-0.035639941
4.730555934,-0.034815171
4.733333712,-0.033960087
4.73611149,-0.033088857
4.738889268,-0.032203131
4.741667046,-0.03130188
4.744444824,-0.030391397
4.747222602,-0.029475743
4.75000038,-0.028556247
4.752778158,-0.027635669
4.755555936,-0.026717235
4.758333714,-0.025801862
4.761111492,-0.024892224
4.76388927,-0.023991755
4.766667048,-0.023099239
4.769444826,-0.022215272
4.772222604,-0.021345894
4.775000382,-0.020488567
4.77777816,-0.019642256
4.780555938,-0.018808683
4.783333716,-0.017992473
4.786111494,-0.017187737
4.788889272,-0.016394331
4.79166705,-0.015615981
4.794444828,-0.014849706
4.797222606,-0.014091224
4.800000384,-0.013339414
4.802778162,-0.012592494
4.80555594,-0.011844558
4.808333718,-0.011093957
4.811111496,-0.010336594
4.813889274,-0.009565245
4.816667052,-0.008779882
4.81944483,-0.007978535
4.822222608,-0.007146015
4.825000386,-0.006294421
4.827778164,-0.005435903
4.830555942,-0.004580865
4.83333372,-0.003659211
4.836111498,-0.002646554
4.838889276,-0.001523426
4.841667054,-0.000195599
4.844444832,0.001379962
4.84722261,0.003183227
4.850000388,0.005231919
4.852778166,0.007752911
4.855555944,0.010607944
4.858333722,0.013812433
4.8611115,0.017485899
4.863889278,0.021729454
4.866667056,0.026415535
4.869444834,0.031557878
4.872222612,0.037430829
4.87500039,0.043889418
4.877778168,0.050884135
4.880555946,0.05849948
4.883333724,0.06698662
4.886111502,0.076078792
4.88888928,0.085785748
4.891667058,0.096364013
4.894444836,0.107792969
4.897222614,0.119977211
4.900000392,0.132961559
4.90277817,0.146855764
4.905555948,0.161021911
4.908333726,0.175360676
4.911111504,0.189708614
4.913889282,0.203735261
4.91666706,0.217365185
4.919444838,0.230519814
4.922222616,0.242707325
4.925000394,0.253977665
4.927778172,0.264359538
4.93055595,0.273659637
4.933333728,0.281332166
4.936111506,0.287832701
4.938889284,0.293129814
4.941667062,0.296694204
4.94444484,0.298617336
4.947222618,0.299209686
4.950000396,0.298460454
4.952778174,0.295522943
4.955555952,0.291256627
4.95833373,0.285677535
4.961111508,0.278490494
4.963889286,0.269624268
4.966667064,0.259645566
4.969444842,0.248625256
4.97222262,0.236406643
4.975000398,0.223593323
4.977778176,0.210373062
4.980555954,0.196831704
4.983333732,0.18318552
4.98611151,0.169634156
4.988889288,0.15624131
4.991667066,0.143232071
