time,amplitude
0,1.101686283
0.002777778,1.064895828
0.005555556,0.991921847
0.008333334,0.886843935
0.011111112,0.750135268
0.01388889,0.594659447
0.016666668,0.434350457
0.019444446,0.273579327
0.022222224,0.127155902
0.025000002,-0.001025031
0.02777778,-0.111760292
0.030555558,-0.201485304
0.033333336,-0.262008156
0.036111114,-0.303796118
0.038888892,-0.327570974
0.04166667,-0.329123146
0.044444448,-0.315595846
0.047222226,-0.293267614
0.050000004,-0.264096013
0.052777782,-0.230395106
0.05555556,-0.197038647
0.058333338,-0.164857726
0.061111116,-0.135877638
0.063888894,-0.112190623
0.066666672,-0.092624202
0.06944445,-0.077197991
0.072222228,-0.067239286
0.075000006,-0.059724916
0.077777784,-0.053839473
0.080555562,-0.049174789
0.08333334,-0.045690931
0.086111118,-0.042682479
0.088888896,-0.040033813
0.091666674,-0.037586668
0.094444452,-0.0350574
0.09722223,-0.032374801
0.100000008,-0.029486289
0.102777786,-0.026152427
0.105555564,-0.02254876
0.108333342,-0.018694591
0.11111112,-0.0145675
0.113888898,-0.010069565
0.116666676,-0.005274745
0.119444454,-0.000170983
0.122222232,0.005427677
0.12500001,0.011419781
0.127777788,0.017769408
0.130555566,0.02453002
0.133333344,0.031855716
0.136111122,0.039564434
0.1388889,0.047657828
0.141666678,0.056283246
0.144444456,0.06539084
0.147222234,0.074880805
0.150000012,0.084751121
0.15277779,0.095223931
0.155555568,0.106053729
0.158333346,0.117253375
0.161111124,0.128942128
0.163888902,0.141176627
0.16666668,0.153740675
0.169444458,0.166600848
0.172222236,0.179789976
0.175000014,0.193129809
0.177777792,0.206562148
0.18055557,0.220051924
0.183333348,0.233497602
0.186111126,0.24684562
0.188888904,0.260067338
0.191666682,0.27303747
0.19444446,0.285687486
0.197222238,0.29803724
0.200000016,0.310060232
0.202777794,0.321441371
0.205555572,0.332362047
0.20833335,0.342799129
0.211111128,0.352583527
0.213888906,0.361569048
0.216666684,0.369931287
0.219444462,0.377649406
0.22222224,0.384330566
0.225000018,0.39017607
0.227777796,0.395254253
0.230555574,0.399441623
0.233333352,0.402371328
0.23611113,0.404423963
0.238888908,0.405583585
0.241666686,0.405472315
0.244444464,0.404156412
0.247222242,0.401829084
0.25000002,0.398461698
0.252777798,0.393448979
0.255555576,0.387522902
0.258333354,0.380719523
0.261111132,0.372894617
0.26388891,0.364073974
0.266666688,0.354596672
0.269444466,0.344496084
0.272222244,0.3335747
0.275000022,0.322132095
0.2777778,0.310266612
0.280555578,0.297970871
0.283333356,0.28521813
0.286111134,0.27222612
0.288888912,0.259022105
0.29166669,0.245600506
0.294444468,0.232066885
0.297222246,0.218484633
0.300000024,0.204878341
0.302777802,0.191334573
0.30555558,0.177888709
0.308333358,0.164561466
0.311111136,0.151425661
0.313888914,0.138570551
0.316666692,0.125955486
0.31944447,0.113598035
0.322222248,0.101685824
0.325000026,0.090154535
0.327777804,0.078981193
0.330555582,0.06823231
0.33333336,0.058102867
0.336111138,0.048414906
0.338888916,0.039179887
0.341666694,0.030598127
0.344444472,0.022633785
0.34722225,0.01515157
0.350000028,0.0081444
0.352777806,0.001864174
0.355555584,-0.003995606
0.358333362,-0.009444775
0.36111114,-0.014401157
0.363888918,-0.018850504
0.366666696,-0.022949682
0.369444474,-0.026707891
0.372222252,-0.029986227
0.37500003,-0.032930905
0.377777808,-0.035590316
0.380555586,-0.037941534
0.383333364,-0.039914682
0.386111142,-0.041654332
0.38888892,-0.043168253
0.391666698,-0.044392919
0.394444476,-0.045379323
0.397222254,-0.046187027
0.400000032,-0.046823173
0.40277781,-0.047210332
0.405555588,-0.04746188
0.408333366,-0.047584119
0.411111144,-0.047557842
0.413888922,-0.047389623
0.4166667,-0.04712923
0.419444478,-0.046782115
0.422222256,-0.046323456
0.425000034,-0.045796281
0.427777812,-0.045214575
0.43055559,-0.044578692
0.433333368,-0.043888616
0.436111146,-0.043172312
0.438888924,-0.042433298
0.441666702,-0.041671731
0.44444448,-0.04088879
0.447222258,-0.040090801
0.450000036,-0.039278997
0.452777814,-0.038450687
0.455555592,-0.037615608
0.45833337,-0.036774931
0.461111148,-0.035929695
0.463888926,-0.03508337
0.466666704,-0.034238194
0.469444482,-0.033395103
0.47222226,-0.032558183
0.475000038,-0.031728199
0.477777816,-0.030905274
0.480555594,-0.030091294
0.483333372,-0.029291514
0.48611115,-0.028502294
0.488888928,-0.027724037
0.491666706,-0.026961865
0.494444484,-0.026215209
0.497222262,-0.025481244
0.50000004,-0.024760139
0.502777818,-0.024060221
0.505555596,-0.023373254
0.508333374,-0.022699099
0.511111152,-0.022040673
0.51388893,-0.021398223
0.516666708,-0.020766188
0.519444486,-0.020143929
0.522222264,-0.019533847
0.525000042,-0.018930465
0.52777782,-0.018331824
0.530555598,-0.017737149
0.533333376,-0.017143716
0.536111154,-0.016548679
0.538888932,-0.015954524
0.54166671,-0.015373265
0.544444488,-0.014793256
0.547222266,-0.014198666
0.550000044,-0.013580146
0.552777822,-0.012879208
0.5555556,-0.012098894
0.558333378,-0.011227763
0.561111156,-0.010219274
0.563888934,-0.009015164
0.566666712,-0.007643106
0.56944449,-0.006090028
0.572222268,-0.004218041
0.575000046,-0.002064152
0.577777824,0.000360226
0.580555602,0.003111297
0.58333338,0.006360512
0.586111158,0.009979925
0.588888936,0.013986334
0.591666714,0.018571682
0.594444492,0.023742456
0.59722227,0.029412273
0.600000048,0.035599561
0.602777826,0.042710595
0.605555604,0.050442978
0.608333382,0.058818152
0.61111116,0.068041499
0.613888938,0.078482361
0.616666716,0.089750471
0.619444494,0.101795679
0.622222272,0.114683657
0.62500005,0.127943276
0.627777828,0.14142475
0.630555606,0.155033776
0.633333384,0.168509246
0.636111162,0.181731221
0.63888894,0.194632838
0.641666718,0.206915083
0.644444496,0.218435471
0.647222274,0.229256044
0.650000052,0.239322602
0.65277783,0.247952551
0.655555608,0.255582785
0.658333386,0.262175405
0.661111164,0.267392037
0.663888942,0.270975844
0.66666672,0.273318021
0.669444498,0.274393303
0.672222276,0.273492524
0.675000054,0.271060961
0.677777832,0.267254345
0.68055561,0.261884646
0.683333388,0.254410565
0.686111166,0.245645959
0.688888944,0.235680831
0.691666722,0.22437003
0.6944445,0.212173121
0.697222278,0.199421265
0.700000056,0.186206808
0.702777834,0.172602505
0.705555612,0.158957421
0.70833339,0.145337401
0.711111168,0.13188586
0.713888946,0.118828624
0.716666724,0.106153744
0.719444502,0.093905924
0.72222228,0.082433517
0.725000058,0.071631699
0.727777836,0.061453715
0.730555614,0.052008762
0.733333392,0.043589202
0.73611117,0.035860582
0.738888948,0.028968199
0.741666726,0.023820495
0.744444504,0.020346331
0.747222282,0.017686626
0.75000006,0.0155268
0.752777838,0.013047747
0.755555616,0.009819547
0.758333394,0.005688844
0.761111172,0.000110558
0.76388895,-0.007424945
0.766666728,-0.01647505
0.769444506,-0.027067392
0.772222284,-0.039944051
0.775000062,-0.054347549
0.77777784,-0.069953452
0.780555618,-0.086737964
0.783333396,-0.104414311
0.786111174,-0.122162948
0.788888952,-0.139724137
0.79166673,-0.156263985
0.794444508,-0.170516922
0.797222286,-0.179937782
0.800000064,-0.182725071
0.802777842,-0.165149232
0.80555562,-0.131217866
0.808333398,-0.080289586
0.811111176,-0.006778564
0.813888954,0.091025159
0.816666732,0.204612308
0.81944451,0.332777288
0.822222288,0.476742923
0.825000066,0.624984942
0.827777844,0.772167706
0.830555622,0.912691985
0.8333334,1.021808009
0.836111178,1.099575852
0.838888956,1.143079937
0.841666734,1.133579561
0.844444512,1.076478542
0.84722229,0.985458463
0.850000068,0.863015561
0.852777846,0.709877831
0.855555624,0.550824343
0.858333402,0.389846556
0.86111118,0.234776832
0.863888958,0.097266189
0.866666736,-0.023619681
0.869444514,-0.126316506
0.872222292,-0.198796072
0.87500007,-0.249362496
0.877777848,-0.281436286
0.880555626,-0.293814541
0.883333404,-0.285222102
0.886111182,-0.267256392
0.88888896,-0.241663912
0.891666738,-0.210074429
0.894444516,-0.177324531
0.897222294,-0.145216916
0.900000072,-0.114693833
0.90277785,-0.08933276
0.905555628,-0.067820272
0.908333406,-0.050043705
0.911111184,-0.036702552
0.913888962,-0.026522089
0.91666674,-0.018175512
0.919444518,-0.011455649
0.922222296,-0.006626856
0.925000074,-0.002796676
0.927777852,0.000309992
0.93055563,0.002787323
0.933333408,0.004850394
0.936111186,0.006845858
0.938888964,0.008851861
0.941666742,0.011071796
0.94444452,0.013671852
0.947222298,0.016640727
0.950000076,0.020017259
0.952777854,0.024151504
0.955555632,0.028765786
0.95833341,0.033848383
0.961111188,0.039491975
0.963888966,0.045648023
0.966666744,0.052085957
0.969444522,0.058772962
0.9722223,0.065806704
0.975000078,0.073261287
0.977777856,0.081098078
0.980555634,0.089373993
0.983333412,0.098247807
0.98611119,0.107521398
0.988888968,0.117193552
0.991666746,0.127408016
0.994444524,0.138100015
0.997222302,0.149161973
1.00000008,0.160586655
1.002777858,0.172558224
1.005555636,0.184833309
1.008333414,0.19739692
1.011111192,0.21028998
1.01388897,0.223481083
1.016666748,0.236848663
1.019444526,0.25037171
1.022222304,0.264048336
1.025000082,0.277763654
1.02777786,0.291496815
1.030555638,0.305231439
1.033333416,0.318870791
1.036111194,0.332345683
1.038888972,0.345615001
1.04166675,0.358491565
1.044444528,0.370888178
1.047222306,0.382844677
1.050000084,0.394327362
1.052777862,0.404908048
1.05555564,0.414860921
1.058333418,0.424161971
1.061111196,0.432598203
1.063888974,0.440006743
1.066666752,0.446632709
1.06944453,0.452459585
1.072222308,0.457037576
1.075000086,0.460645384
1.077777864,0.463380278
1.080555642,0.465121301
1.08333342,0.465518247
1.086111198,0.465015714
1.088888976,0.463614371
1.091666754,0.460981999
1.094444532,0.457246967
1.09722231,0.452643488
1.100000088,0.447179746
1.102777866,0.440295267
1.105555644,0.432570332
1.108333422,0.424045435
1.1111112,0.414604873
1.113888978,0.404298786
1.116666756,0.393436994
1.119444534,0.382055767
1.122222312,0.370018161
1.12500009,0.357588579
1.127777868,0.344853099
1.130555646,0.331821313
1.133333424,0.31851481
1.136111202,0.305091202
1.13888898,0.291577586
1.141666758,0.278013081
1.144444536,0.264484646
1.147222314,0.251023238
1.150000092,0.237651758
1.15277787,0.224517844
1.155555648,0.211581617
1.158333426,0.198860573
1.161111204,0.186444961
1.163888982,0.174422944
1.16666676,0.162714983
1.169444538,0.151334385
1.172222316,0.14048719
1.175000094,0.130071012
1.177777872,0.120049291
1.18055565,0.110484077
1.183333428,0.101554439
1.186111206,0.09306013
1.188888984,0.085007957
1.191666762,0.077584925
1.19444454,0.070719743
1.197222318,0.064283142
1.200000096,0.058264515
1.202777874,0.052880666
1.205555652,0.047861105
1.20833343,0.043196279
1.211111208,0.038954991
1.213888986,0.035145989
1.216666764,0.031633726
1.219444542,0.028409504
1.22222232,0.025587718
1.225000098,0.023043357
1.227777876,0.020734891
1.230555654,0.01867977
1.233333432,0.016931502
1.23611121,0.015370561
1.238888988,0.013989801
1.241666766,0.012837454
1.244444544,0.011870541
1.247222322,0.011041449
1.2500001,0.010343864
1.252777878,0.009834379
1.255555656,0.009426108
1.258333434,0.009113955
1.261111212,0.008911345
1.26388899,0.008811897
1.266666768,0.008778725
1.269444546,0.008807577
1.272222324,0.008915407
1.275000102,0.009071504
1.27777788,0.009266102
1.280555658,0.009499063
1.283333436,0.009771409
1.286111214,0.010063981
1.288888992,0.010374432
1.29166677,0.010703343
1.294444548,0.011042808
1.297222326,0.011388359
1.300000104,0.011738584
1.302777882,0.012104887
1.30555566,0.012480327
1.308333438,0.012863022
1.311111216,0.013250862
1.313888994,0.013638242
1.316666772,0.014022374
1.31944455,0.014401876
1.322222328,0.014770082
1.325000106,0.01512674
1.327777884,0.015472278
1.330555662,0.015804343
1.33333344,0.016117685
1.336111218,0.016418646
1.338888996,0.016707411
1.341666774,0.016980112
1.344444552,0.017239773
1.34722233,0.017490142
1.350000108,0.017731902
1.352777886,0.017963558
1.355555664,0.018191955
1.358333442,0.018418419
1.36111122,0.018645224
1.363888998,0.018878038
1.366666776,0.019118725
1.369444554,0.019369107
1.372222332,0.019640904
1.37500011,0.019935295
1.377777888,0.02025296
1.380555666,0.02060039
1.383333444,0.020997931
1.386111222,0.021435453
1.388889,0.021915917
1.391666778,0.02246376
1.394444556,0.023083678
1.397222334,0.023767018
1.400000112,0.024517239
1.40277789,0.025368407
1.405555668,0.026282459
1.408333446,0.027285423
1.411111224,0.02845374
1.413889002,0.029897295
1.41666678,0.031588137
1.419444558,0.033549197
1.422222336,0.035991399
1.425000114,0.038853829
1.427777892,0.04211352
1.43055567,0.045846809
1.433333448,0.050273364
1.436111226,0.055193248
1.438889004,0.060618556
1.441666782,0.066770315
1.44444456,0.073614468
1.447222338,0.081025313
1.450000116,0.08901053
1.452777894,0.097954158
1.455555672,0.107498038
1.45833345,0.117644111
1.461111228,0.128547004
1.463889006,0.140282581
1.466666784,0.152678607
1.469444562,0.165736539
1.47222234,0.179610676
1.475000118,0.193777624
1.477777896,0.208074099
1.480555674,0.222369259
1.483333452,0.236304211
1.48611123,0.249809596
1.488889008,0.26280985
1.491666786,0.274915536
1.494444564,0.28599345
1.497222342,0.296156014
1.50000012,0.305347326
1.502777898,0.312754723
1.505555676,0.318960065
1.508333454,0.323932811
1.511111232,0.327301115
1.51388901,0.32882296
1.516666788,0.328974458
1.519444566,0.32774465
1.522222344,0.324424296
1.525000122,0.319545117
1.5277779,0.313295741
1.530555678,0.30552224
1.533333456,0.295898593
1.536111234,0.285277292
1.538889012,0.273758219
1.54166679,0.261277841
1.544444568,0.248225107
1.547222346,0.234850639
1.550000124,0.221236105
1.552777902,0.2075471
1.55555568,0.193982997
1.558333458,0.180598995
1.561111236,0.167555081
1.563889014,0.155055358
1.566666792,0.1430265
1.56944457,0.131503116
1.572222348,0.120838443
1.575000126,0.110877601
1.577777904,0.101557122
1.580555682,0.092973628
1.58333346,0.085381932
1.586111238,0.078434398
1.588889016,0.07211519
1.591666794,0.066604588
1.594444572,0.061738217
1.59722235,0.057300435
1.600000128,0.053239183
1.602777906,0.049443567
1.605555684,0.045524085
1.608333462,0.041345123
1.61111124,0.036559385
1.613889018,0.030506785
1.616666796,0.023150254
1.619444574,0.014289211
1.622222352,0.002404624
1.62500013,-0.012471114
1.627777908,-0.02991499
1.630555686,-0.050146068
1.633333464,-0.071556232
1.636111242,-0.091829623
1.63888902,-0.110039868
1.641666798,-0.12272569
1.644444576,-0.126617873
1.647222354,-0.121333898
1.650000132,-0.105588906
1.65277791,-0.067128951
1.655555688,-0.012510059
1.658333466,0.059009328
1.661111244,0.153199917
1.663889022,0.271044358
1.6666668,0.402920816
1.669444578,0.546833086
1.672222356,0.698935279
1.675000134,0.845023813
1.677777912,0.978799491
1.68055569,1.090888457
1.683333468,1.15642677
1.686111246,1.186455608
1.688889024,1.180218162
1.691666802,1.123632366
1.69444458,1.026367752
1.697222358,0.901954478
1.700000136,0.7536279
1.702777914,0.587851059
1.705555692,0.426421104
1.70833347,0.271871116
1.711111248,0.131196373
1.713889026,0.012065581
1.716666804,-0.089328798
1.719444582,-0.172192963
1.72222236,-0.226167653
1.725000138,-0.259697243
1.727777916,-0.276560967
1.730555694,-0.276370813
1.733333472,-0.259593661
1.73611125,-0.235279601
1.738889028,-0.20498371
1.741666806,-0.170802804
1.744444584,-0.137115005
1.747222362,-0.105206841
1.75000014,-0.075909229
1.752777918,-0.052822622
1.755555696,-0.033766493
1.758333474,-0.018442444
1.761111252,-0.007162472
1.76388903,0.001191957
1.766666808,0.007842411
1.769444586,0.01299713
1.772222364,0.016612487
1.775000142,0.019572255
1.77777792,0.022124669
1.780555698,0.024416029
1.783333476,0.026745816
1.786111254,0.029245371
1.788889032,0.031953218
1.79166681,0.035021449
1.794444588,0.038390859
1.797222366,0.041946517
1.800000144,0.045655633
1.802777922,0.049721632
1.8055557,0.054051926
1.808333478,0.0586547
1.811111256,0.063615133
1.813889034,0.068994874
1.816666812,0.074691316
1.81944459,0.080709958
1.822222368,0.087228406
1.825000146,0.094132456
1.827777924,0.101382446
1.830555702,0.109025198
1.83333348,0.117196689
1.836111258,0.125721102
1.838889036,0.134598341
1.841666814,0.143960036
1.844444592,0.153787586
1.84722237,0.164010906
1.850000148,0.174643852
1.852777926,0.185856093
1.855555704,0.197366494
1.858333482,0.209153072
1.86111126,0.22123913
1.863889038,0.23357395
1.866666816,0.246045531
1.869444594,0.258631784
1.872222372,0.271312593
1.87500015,0.283997747
1.877777928,0.296657066
1.880555706,0.309253928
1.883333484,0.32167816
1.886111262,0.333935054
1.88888904,0.346002175
1.891666818,0.357746639
1.894444596,0.369122687
1.897222374,0.380166394
1.900000152,0.390855188
1.90277793,0.400869213
1.905555708,0.410407417
1.908333486,0.419447082
1.911111264,0.427816226
1.913889042,0.435364044
1.91666682,0.442268822
1.919444598,0.448507667
1.922222376,0.453667421
1.925000154,0.457948762
1.927777932,0.461418611
1.93055571,0.463941037
1.933333488,0.465104976
1.936111266,0.465318239
1.938889044,0.464583476
1.941666822,0.462582722
1.9444446,0.45949413
1.947222378,0.455567415
1.950000156,0.450821823
1.952777934,0.444830695
1.955555712,0.43812636
1.95833349,0.430729292
1.961111268,0.422508873
1.963889046,0.413458882
1.966666824,0.403847964
1.969444602,0.393697427
1.97222238,0.382812968
1.975000158,0.371443843
1.977777936,0.359673724
1.980555714,0.347486018
1.983333492,0.334832342
1.98611127,0.321921961
1.988889048,0.30877824
1.991666826,0.295378292
1.994444604,0.281824984
1.997222382,0.268189443
2.00000016,0.254495937
2.002777938,0.24081505
2.005555716,0.227208702
2.008333494,0.213702317
2.011111272,0.200373831
2.01388905,0.187335704
2.016666828,0.17456113
2.019444606,0.162076435
2.022222384,0.15011955
2.025000162,0.138607243
2.02777794,0.12748496
2.030555718,0.116795658
2.033333496,0.106676778
2.036111274,0.096932962
2.038889052,0.087561763
2.04166683,0.078695841
2.044444608,0.070283277
2.047222386,0.062230449
2.050000164,0.054535604
2.052777942,0.04741271
2.05555572,0.040634519
2.058333498,0.034197752
2.061111276,0.028180979
2.063889054,0.022612546
2.066666832,0.017361677
2.06944461,0.012423966
2.072222388,0.007939385
2.075000166,0.003778996
2.077777944,-0.000100892
2.080555722,-0.003673842
2.0833335,-0.006862395
2.086111278,-0.009810348
2.088889056,-0.012524733
2.091666834,-0.014937761
2.094444612,-0.017102426
2.09722239,-0.019082066
2.100000168,-0.020884872
2.102777946,-0.022437975
2.105555724,-0.023861885
2.108333502,-0.0251663
2.11111128,-0.026341526
2.113889058,-0.027397722
2.116666836,-0.028361762
2.119444614,-0.02923254
2.122222392,-0.029971371
2.12500017,-0.030618365
2.127777948,-0.031186622
2.130555726,-0.031669553
2.133333504,-0.032046501
2.136111282,-0.032356847
2.13888906,-0.032602187
2.141666838,-0.032762348
2.144444616,-0.032851174
2.147222394,-0.032887173
2.150000172,-0.032872883
2.15277795,-0.032787357
2.155555728,-0.032663865
2.158333506,-0.0325044
2.161111284,-0.032304115
2.163889062,-0.032065426
2.16666684,-0.031801928
2.169444618,-0.031515109
2.172222396,-0.031198016
2.175000174,-0.030861602
2.177777952,-0.030509236
2.18055573,-0.030140298
2.183333508,-0.029752058
2.186111286,-0.029352084
2.188889064,-0.028940717
2.191666842,-0.02851443
2.19444462,-0.028072067
2.197222398,-0.027605577
2.200000176,-0.027108204
2.202777954,-0.026573358
2.205555732,-0.026028446
2.20833351,-0.025477544
2.211111288,-0.024927641
2.213889066,-0.024390839
2.216666844,-0.023868511
2.219444622,-0.023362862
2.2222224,-0.022888085
2.225000178,-0.022439082
2.227777956,-0.022013084
2.230555734,-0.021613072
2.233333512,-0.021244799
2.23611129,-0.020894117
2.238889068,-0.020558965
2.241666846,-0.020238758
2.244444624,-0.019921477
2.247222402,-0.019598932
2.25000018,-0.019266564
2.252777958,-0.018893839
2.255555736,-0.018479119
2.258333514,-0.018015174
2.261111292,-0.01747464
2.26388907,-0.016820387
2.266666848,-0.016065766
2.269444626,-0.015201678
2.272222404,-0.014139688
2.275000182,-0.012897942
2.27777796,-0.011481446
2.280555738,-0.009851529
2.283333516,-0.007888861
2.286111294,-0.005680038
2.288889072,-0.003220797
2.29166685,-0.000414008
2.294444628,0.002828318
2.297222406,0.006479853
2.300000184,0.010577077
2.302777962,0.015524137
2.30555574,0.021051656
2.308333518,0.027173613
2.311111296,0.034067795
